 -1.3914663e-001
 -1.5048442e-001
 -1.5860879e-001
 -1.6219277e-001
 -1.6080174e-001
 -1.5511452e-001
 -1.4679218e-001
 -5.2032358e-002
 -4.2911906e-002
 -4.2070187e-002
 -4.8327282e-002
 -5.9084588e-002
 -7.0737848e-002
 -7.9471135e-002
 -8.2249533e-002
 -7.7699577e-002
 -6.6561340e-002
 -5.1524080e-002
 -3.6457592e-002
 -2.5245506e-002
 -2.0566722e-002
 -2.3026465e-002
 -3.0966277e-002
 -4.1057854e-002
 -4.9473701e-002
 -5.3183364e-002
 -5.0889056e-002
 -4.3300777e-002
 -3.2736373e-002
 -2.2264994e-002
 -1.4716501e-002
 -1.1865202e-002
 -1.4006934e-002
 -2.0017610e-002
 -2.7833573e-002
 -3.5166466e-002
 -4.0206776e-002
 -4.2108479e-002
 -4.1154277e-002
 -3.8608909e-002
 -3.6326570e-002
 -3.6197357e-002
 -3.9545358e-002
 -4.6643191e-002
 -5.6531102e-002
 -6.7256678e-002
 -7.6493083e-002
 -8.2334745e-002
 -8.3988591e-002
 -8.2097368e-002
 -7.8537423e-002
 -7.5710833e-002
 -7.5562445e-002
 -7.8712328e-002
 -8.4104185e-002
 -8.9384701e-002
 -9.1904722e-002
 -8.9921334e-002
 -8.3448510e-002
 -7.4336977e-002
 -6.5505583e-002
 -5.9637411e-002
 -5.7914838e-002
 -5.9374880e-002
 -6.1202015e-002
 -5.9852061e-002
 -5.2520941e-002
 -3.8323712e-002
 -1.8695217e-002
  3.1240983e-003
  2.3269884e-002
  3.8605728e-002
  4.7718205e-002
  5.1207454e-002
  5.1226415e-002
  5.0520844e-002
  5.1395954e-002
  5.5007533e-002
  6.1171414e-002
  6.8635232e-002
  7.5605579e-002
  8.0321158e-002
  8.1542303e-002
  7.8890463e-002
  7.2980292e-002
  6.5283841e-002
  5.7714273e-002
  5.2026720e-002
  4.9245622e-002
  4.9357059e-002
  5.1414503e-002
  5.4034961e-002
  5.6089779e-002
  5.7294278e-002
  5.8417782e-002
  6.0980276e-002
  6.6532412e-002
  7.5833441e-002
  8.8329310e-002
  1.0222269e-001
  1.1515148e-001
  1.2518349e-001
  1.3165484e-001
  1.3543056e-001
  1.3842939e-001
  1.4261339e-001
  1.4892755e-001
  1.5673776e-001
  1.6408523e-001
  1.6864191e-001
  1.6885710e-001
  1.6468316e-001
  1.5752571e-001
  1.4950580e-001
  1.4247123e-001
  1.3726815e-001
  1.3358638e-001
  1.3037374e-001
  1.2655793e-001
  1.2172211e-001
  1.1643989e-001
  1.1211810e-001
  1.1038024e-001
  1.1222667e-001
  1.1736120e-001
  1.2406559e-001
  1.2977303e-001
  1.3212532e-001
  1.3000934e-001
  1.2405105e-001
  1.1632574e-001
  1.0945184e-001
  1.0552361e-001
  1.0535489e-001
  1.0829029e-001
  1.1256608e-001
  1.1602572e-001
  1.1694089e-001
  1.1469064e-001
  1.1006787e-001
  1.0505994e-001
  1.0213869e-001
  1.0333069e-001
  1.0946356e-001
  1.1989554e-001
  1.3279238e-001
  1.4578179e-001
  1.5671454e-001
  1.6429317e-001
  1.6841743e-001
  1.7016922e-001
  1.7142118e-001
  1.7414382e-001
  1.7961629e-001
  1.8784380e-001
  1.9745192e-001
  2.0614273e-001
  2.1155351e-001
  2.1218729e-001
  2.0805316e-001
  2.0075259e-001
  1.9293533e-001
  1.8728890e-001
  1.8544952e-001
  1.8731190e-001
  1.9107476e-001
  1.9402254e-001
  1.9368778e-001
  1.8886390e-001
  1.8003340e-001
  1.6907190e-001
  1.5841182e-001
  1.5004854e-001
  1.4478684e-001
  1.4199518e-001
  1.3993410e-001
  1.3651362e-001
  1.3016281e-001
  1.2043410e-001
  1.0807788e-001
  9.4580195e-002
  8.1416540e-002
  6.9385729e-002
  5.8309765e-002
  4.7197144e-002
  3.4777731e-002
  2.0188815e-002
  3.5358372e-003
 -1.3925094e-002
 -3.0112676e-002
 -4.2870641e-002
 -5.0841720e-002
 -5.4070767e-002
 -5.4046276e-002
 -5.3139756e-002
 -5.3662912e-002
 -5.6914853e-002
 -6.2595609e-002
 -6.8838521e-002
 -7.2900119e-002
 -7.2290134e-002
 -6.5907538e-002
 -5.4684492e-002
 -4.1410699e-002
 -2.9777876e-002
 -2.3064784e-002
 -2.3051143e-002
 -2.9601532e-002
 -4.1003583e-002
 -5.4803850e-002
 -6.8733006e-002
 -8.1373192e-002
 -9.2400619e-002
 -1.0242016e-001
 -1.1252939e-001
 -1.2380006e-001
 -1.3686204e-001
 -1.5172296e-001
 -1.6785797e-001
 -1.8448596e-001
 -2.0087266e-001
 -2.1651303e-001
 -2.3113131e-001
 -2.4453828e-001
 -2.5644989e-001
 -2.6638022e-001
 -2.7367543e-001
 -2.7767789e-001
 -2.7794469e-001
 -2.7443470e-001
 -2.6761679e-001
 -2.5848511e-001
 -2.4845491e-001
 -2.3908684e-001
 -2.3162080e-001
 -2.2642589e-001
 -2.2262077e-001
 -2.1815449e-001
 -2.1047218e-001
 -1.9758132e-001
 -1.7906879e-001
 -1.5657480e-001
 -1.3344523e-001
 -1.1363898e-001
 -1.0028829e-001
 -9.4470344e-002
 -9.4701550e-002
 -9.7419482e-002
 -9.8336119e-002
 -9.4158564e-002
 -8.3962260e-002
 -6.9605954e-002
 -5.4983686e-002
 -4.4425009e-002
 -4.0921409e-002
 -4.4909910e-002
 -5.4093423e-002
 -6.4355535e-002
 -7.1399580e-002
 -7.2454110e-002
 -6.7350386e-002
 -5.8526358e-002
 -4.9956450e-002
 -4.5455947e-002
 -4.7064733e-002
 -5.4170771e-002
 -6.3718207e-002
 -7.1400506e-002
 -7.3350645e-002
 -6.7654853e-002
 -5.5095845e-002
 -3.8845863e-002
 -2.3260261e-002
 -1.2282762e-002
 -8.0958689e-003
 -1.0496826e-002
 -1.7162648e-002
 -2.4640006e-002
 -2.9652972e-002
 -3.0214126e-002
 -2.6102104e-002
 -1.8544738e-002
 -9.3218744e-003
  2.2209425e-004
  9.7573235e-003
  1.9911907e-002
  3.1741028e-002
  4.6146069e-002
  6.3634261e-002
  8.4509794e-002
  1.0924468e-001
  1.3864122e-001
  1.7354959e-001
  2.1421758e-001
  2.5961653e-001
  3.0716627e-001
  3.5314173e-001
  3.9374658e-001
  4.2651524e-001
  4.5150953e-001
  4.7181259e-001
  4.9308150e-001
  5.2228959e-001
  5.6611967e-001
  6.2961003e-001
  7.1550986e-001
  8.2440814e-001
  9.5527714e-001
  1.1058936e+000
  1.2727930e+000
  1.4508447e+000
  1.6329211e+000
  1.8101962e+000
  1.9732777e+000
  2.1138087e+000
  2.2257318e+000
  2.3054072e+000
  2.3502960e+000
  2.3567175e+000
  2.3178434e+000
  2.2232415e+000
  2.0607632e+000
  1.8205581e+000
  1.4998753e+000
  1.1066325e+000
  6.5992621e-001
  1.8680700e-001
 -2.8371410e-001
 -7.2715529e-001
 -1.1280189e+000
 -1.4806253e+000
 -1.7863752e+000
 -2.0489843e+000
 -2.2698983e+000
 -2.4457559e+000
 -2.5687317e+000
 -2.6293903e+000
 -2.6207785e+000
 -2.5420981e+000
 -2.4005474e+000
 -2.2106880e+000
 -1.9916923e+000
 -1.7635708e+000
 -1.5436562e+000
 -1.3442605e+000
 -1.1718132e+000
 -1.0272903e+000
 -9.0750040e-001
 -8.0680217e-001
 -7.1891980e-001
 -6.3858558e-001
 -5.6271214e-001
 -4.9077768e-001
 -4.2423103e-001
 -3.6505802e-001
 -3.1407241e-001
 -2.6973618e-001
 -2.2815019e-001
 -1.8430398e-001
 -1.3402454e-001
 -7.5701634e-002
 -1.1011071e-002
  5.5606851e-002
  1.1837722e-001
  1.7188335e-001
  2.1240530e-001
  2.3852217e-001
  2.5089453e-001
  2.5143037e-001
  2.4225452e-001
  2.2495765e-001
  2.0044071e-001
  1.6934975e-001
  1.3277608e-001
  9.2753782e-002
  5.2211672e-002
  1.4363523e-002
 -1.8144903e-002
 -4.3880599e-002
 -6.2750601e-002
 -7.5612573e-002
 -8.3641844e-002
 -8.7805042e-002
 -8.8656123e-002
 -8.6442430e-002
 -8.1347353e-002
 -7.3689961e-002
 -6.4008502e-002
 -5.3056851e-002
 -4.1766082e-002
 -3.1185853e-002
 -2.2383261e-002
 -1.6275836e-002
 -1.3412049e-002
 -1.3771029e-002
 -1.6699094e-002
 -2.1086636e-002
 -2.5792435e-002
 -3.0181308e-002
 -3.4536311e-002
 -4.0109132e-002
 -4.8695007e-002
 -6.1813141e-002
 -7.9763079e-002
 -1.0094226e-001
 -1.2179537e-001
 -1.3758232e-001
 -1.4381276e-001
 -1.3782631e-001
 -1.1981205e-001
 -9.2725887e-002
 -6.1054768e-002
 -2.8946366e-002
  1.4463914e-003
  3.0651190e-002
  6.1299505e-002
  9.6577754e-002
  1.3842350e-001
  1.8627666e-001
  2.3693694e-001
  2.8558792e-001
  3.2752944e-001
  3.5983579e-001
  3.8218973e-001
  3.9654320e-001
  4.0583967e-001
  4.1249002e-001
  4.1736907e-001
  4.1976607e-001
  4.1818800e-001
  4.1148903e-001
  3.9969743e-001
  3.8415003e-001
  3.6695012e-001
  3.5009521e-001
  3.3471958e-001
  3.2076643e-001
  3.0716035e-001
  2.9233117e-001
  2.7483360e-001
  2.5382640e-001
  2.2927487e-001
  2.0185744e-001
  1.7265262e-001
  1.4273629e-001
  1.1282660e-001
  8.3077183e-002
  5.3062958e-002
  2.1951457e-002
 -1.1183476e-002
 -4.6978621e-002
 -8.5432471e-002
 -1.2571591e-001
 -1.6625407e-001
 -2.0511073e-001
 -2.4056845e-001
 -2.7167542e-001
 -2.9851832e-001
 -3.2209515e-001
 -3.4382945e-001
 -3.6490547e-001
 -3.8567538e-001
 -4.0538302e-001
 -4.2234509e-001
 -4.3454066e-001
 -4.4036337e-001
 -4.3920328e-001
 -4.3160555e-001
 -4.1895518e-001
 -4.0285001e-001
 -3.8444866e-001
 -3.6407696e-001
 -3.4126213e-001
 -3.1518655e-001
 -2.8537095e-001
 -2.5227545e-001
 -2.1751064e-001
 -1.8350486e-001
 -1.5272457e-001
 -1.2677465e-001
 -1.0579483e-001
 -8.8462186e-002
 -7.2646899e-002
 -5.6463094e-002
 -3.9252154e-002
 -2.2036477e-002
 -7.2015473e-003
  2.4882083e-003
  5.1170537e-003
  5.4010128e-004
 -9.4031478e-003
 -2.1439869e-002
 -3.1892473e-002
 -3.7752211e-002
 -3.7447167e-002
 -3.1135963e-002
 -2.0509444e-002
 -8.1791297e-003
  3.1801455e-003
  1.1675779e-002
  1.6743107e-002
  1.9198267e-002
  2.0809747e-002
  2.3603026e-002
  2.9188005e-002
  3.8316087e-002
  5.0725395e-002
  6.5239929e-002
  8.0080655e-002
  9.3347024e-002
  1.0356439e-001
  1.1010423e-001
  1.1328577e-001
  1.1411186e-001
  1.1378845e-001
  1.1327604e-001
  1.1306030e-001
  1.1317951e-001
  1.1342556e-001
  1.1359599e-001
  1.1368668e-001
  1.1394042e-001
  1.1471360e-001
  1.1621504e-001
  1.1827053e-001
  1.2028719e-001
  1.2148362e-001
  1.2127806e-001
  1.1961284e-001
  1.1702154e-001
  1.1439470e-001
  1.1257030e-001
  1.1196013e-001
  1.1237792e-001
  1.1310556e-001
  1.1312100e-001
  1.1137842e-001
  1.0706440e-001
  9.9794801e-002
  8.9736883e-002
  7.7641290e-002
  6.4767582e-002
  5.2694235e-002
  4.3026573e-002
  3.7047661e-002
  3.5385279e-002
  3.7790149e-002
  4.3134748e-002
  4.9717700e-002
  5.5854417e-002
  6.0566322e-002
  6.4052284e-002
  6.7658520e-002
  7.3285626e-002
  8.2473007e-002
  9.5596142e-002
  1.1156793e-001
  1.2817273e-001
  1.4284461e-001
  1.5351260e-001
  1.5915609e-001
  1.5989630e-001
  1.5668231e-001
  1.5079314e-001
  1.4339728e-001
  1.3530528e-001
  1.2691499e-001
  1.1827691e-001
  1.0921007e-001
  9.9425595e-002
  8.8628784e-002
  7.6586421e-002
  6.3180024e-002
  4.8492009e-002
  3.2941223e-002
  1.7396271e-002
  3.1219824e-003
 -8.5496304e-003
 -1.6765438e-002
 -2.1656045e-002
 -2.4472470e-002
 -2.7184196e-002
 -3.1673740e-002
 -3.8913651e-002
 -4.8538475e-002
 -5.9019934e-002
 -6.8355088e-002
 -7.4948287e-002
 -7.8305238e-002
 -7.9266250e-002
 -7.9714080e-002
 -8.1892552e-002
 -8.7587718e-002
 -9.7445934e-002
 -1.1066124e-001
 -1.2516385e-001
 -1.3827535e-001
 -1.4760298e-001
 -1.5181844e-001
 -1.5099496e-001
 -1.4637033e-001
 -1.3968085e-001
 -1.3241894e-001
 -1.2537349e-001
 -1.1860329e-001
 -1.1171857e-001
 -1.0420376e-001
 -9.5592725e-002
 -8.5506329e-002
 -7.3695279e-002
 -6.0192653e-002
 -4.5526519e-002
 -3.0824492e-002
 -1.7666834e-002
 -7.6897516e-003
 -2.0906024e-003
 -1.2403798e-003
 -4.5492540e-003
 -1.0615417e-002
 -1.7590333e-002
 -2.3650106e-002
 -2.7454748e-002
 -2.8471012e-002
 -2.7036698e-002
 -2.4102713e-002
 -2.0724539e-002
 -1.7521397e-002
 -1.4366033e-002
 -1.0456780e-002
 -4.7199195e-003
  3.6732873e-003
  1.4915815e-002
  2.8434268e-002
  4.3009379e-002
  5.7057737e-002
  6.8983920e-002
  7.7535349e-002
  8.2091943e-002
  8.2812650e-002
  8.0579540e-002
  7.6733268e-002
  7.2656631e-002
  6.9317520e-002
  6.6919093e-002
  6.4801237e-002
  6.1669121e-002
  5.6100829e-002
  4.7160661e-002
  3.4885608e-002
  2.0456106e-002
  5.9858113e-003
 -5.9984407e-003
 -1.3229655e-002
 -1.4349390e-002
 -9.3667976e-003
  2.2095842e-004
  1.1752436e-002
  2.2157851e-002
  2.8949894e-002
  3.1092918e-002
  2.9382314e-002
  2.6145613e-002
  2.4364313e-002
  2.6554357e-002
  3.3816758e-002
  4.5372994e-002
  5.8716820e-002
  7.0335212e-002
  7.6807046e-002
  7.5964438e-002
  6.7713859e-002
  5.4146893e-002
  3.8804729e-002
  2.5344570e-002
  1.6180374e-002
  1.1709441e-002
  1.0441550e-002
  9.8973610e-003
  7.8054736e-003
  3.0639574e-003
 -3.8855925e-003
 -1.1340660e-002
 -1.7099384e-002
 -1.9376304e-002
 -1.7513929e-002
 -1.2216711e-002
 -5.2275754e-003
  1.3932266e-003
  6.0550610e-003
  8.1481002e-003
  8.0933778e-003
  6.9752303e-003
  5.9775757e-003
  5.8918513e-003
  6.8784832e-003
  8.5145915e-003
  1.0039751e-002
  1.0672777e-002
  9.9014966e-003
  7.6873464e-003
  4.5373316e-003
  1.3930911e-003
 -6.7806608e-004
 -9.0909176e-004
  8.1233672e-004
  3.8703199e-003
  7.2141909e-003
  9.8905790e-003
  1.1524220e-002
  1.2469754e-002
  1.3539060e-002
  1.5440033e-002
  1.8207796e-002
  2.0915352e-002
  2.1846692e-002
  1.9142862e-002
  1.1715308e-002
  2.3502887e-005
 -1.3733884e-002
 -2.6254073e-002
 -3.4413510e-002
 -3.6627271e-002
 -3.3602950e-002
 -2.8081649e-002
 -2.3671101e-002
 -2.3326387e-002
 -2.8168481e-002
 -3.7109448e-002
 -4.7349345e-002
 -5.5453429e-002
 -5.8540875e-002
 -5.5135986e-002
 -4.5418584e-002
 -3.0893084e-002
 -1.3746421e-002
  3.7581948e-003
  1.9643689e-002
  3.2373093e-002
  4.0987550e-002
  4.5364407e-002
  4.6502574e-002
  4.6535012e-002
  4.8190001e-002
  5.3719454e-002
  6.3702554e-002
  7.6334356e-002
  8.7658746e-002
  9.2775867e-002
  8.7584711e-002
  7.0354105e-002
  4.2468433e-002
  8.0306986e-003
 -2.7525386e-002
 -5.9255116e-002
 -8.4223858e-002
 -1.0214935e-001
 -1.1499287e-001
 -1.2578588e-001
 -1.3725441e-001
 -1.5078071e-001
 -1.6599266e-001
 -1.8097468e-001
 -1.9290269e-001
 -1.9885870e-001
 -1.9662147e-001
 -1.8527762e-001
 -1.6552600e-001
 -1.3958734e-001
 -1.1071662e-001
 -8.2436909e-002
 -5.7713615e-002
 -3.8316020e-002
 -2.4553343e-002
 -1.5449998e-002
 -9.2812008e-003
 -4.2709930e-003
  7.9482343e-004
  6.2423771e-003
  1.1544125e-002
  1.5635400e-002
  1.7332997e-002
  1.5680193e-002
  1.0142561e-002
  6.9466698e-004
 -1.2119543e-002
 -2.7125033e-002
 -4.2520001e-002
 -5.6060969e-002
 -6.5494909e-002
 -6.9176590e-002
 -6.6666431e-002
 -5.9033187e-002
 -4.8652963e-002
 -3.8492769e-002
 -3.1100592e-002
 -2.7677342e-002
 -2.7604883e-002
 -2.8645663e-002
 -2.7776660e-002
 -2.2375049e-002
 -1.1327786e-002
  4.3618554e-003
  2.1746631e-002
  3.6885337e-002
  4.6242752e-002
  4.7980820e-002
  4.2592216e-002
  3.2605653e-002
  2.1508020e-002
  1.2371106e-002
  6.7744074e-003
  4.4458855e-003
  3.7038346e-003
  2.4465316e-003
 -7.6294305e-004
 -5.9834814e-003
 -1.1865343e-002
 -1.6330606e-002
 -1.7665564e-002
 -1.5491505e-002
 -1.1084376e-002
 -6.8049025e-003
 -4.8622265e-003
 -6.0236770e-003
 -8.9687650e-003
 -1.0695344e-002
 -7.8653982e-003
  1.4995993e-003
  1.6763340e-002
  3.4491152e-002
  4.9536091e-002
  5.7053225e-002
  5.4650774e-002
  4.3713658e-002
  2.9177058e-002
  1.7672767e-002
  1.4767184e-002
  2.2532786e-002
  3.8604197e-002
  5.7168238e-002
  7.1403165e-002
  7.6225967e-002
  7.0144142e-002
  5.5503878e-002
  3.7176815e-002
  2.0370918e-002
  8.5407244e-003
  2.2399460e-003
 -7.0418873e-004
 -3.9062909e-003
 -1.0700165e-002
 -2.2771919e-002
 -3.9681409e-002
 -5.9325230e-002
 -7.8969191e-002
 -9.6309374e-002
 -1.1012957e-001
 -1.2038559e-001
 -1.2781313e-001
 -1.3332777e-001
 -1.3752302e-001
 -1.4047574e-001
 -1.4188259e-001
 -1.4137103e-001
 -1.3875892e-001
 -1.3411762e-001
 -1.2766122e-001
 -1.1960883e-001
 -1.1015582e-001
 -9.9567601e-002
 -8.8294561e-002
 -7.7001638e-002
 -6.6494545e-002
 -5.7595863e-002
 -5.1005142e-002
 -4.7120119e-002
 -4.5808252e-002
 -4.6218994e-002
 -4.6817266e-002
 -4.5779613e-002
 -4.1706278e-002
 -3.4366373e-002
 -2.5070900e-002
 -1.6377852e-002
 -1.1156044e-002
 -1.1396365e-002
 -1.7335851e-002
 -2.7332389e-002
 -3.8564451e-002
 -4.8234793e-002
 -5.4736966e-002
 -5.8292338e-002
 -6.0825258e-002
 -6.5168934e-002
 -7.3949340e-002
 -8.8602603e-002
 -1.0891127e-001
 -1.3320861e-001
 -1.5908556e-001
 -1.8420188e-001
 -2.0679199e-001
 -2.2567598e-001
 -2.3989486e-001
 -2.4829629e-001
 -2.4939531e-001
 -2.4164822e-001
 -2.2402456e-001
 -1.9657639e-001
 -1.6067066e-001
 -1.1868691e-001
 -7.3240279e-002
 -2.6259649e-002
  2.1614789e-002
  7.0962115e-002
  1.2282365e-001
  1.7763080e-001
  2.3439000e-001
  2.9056314e-001
  3.4268458e-001
  3.8735241e-001
  4.2208094e-001
  4.4566891e-001
  4.5806623e-001
  4.5998128e-001
  4.5252757e-001
  4.3708234e-001
  4.1533007e-001
  3.8931876e-001
  3.6134431e-001
  3.3359775e-001
  3.0768243e-001
  2.8423122e-001
  2.6284489e-001
  2.4241937e-001
  2.2171239e-001
  1.9986542e-001
  1.7663980e-001
  1.5230883e-001
  1.2733656e-001
  1.0205635e-001
  7.6517888e-002
  5.0552749e-002
  2.3979044e-002
 -3.2177495e-003
 -3.0881631e-002
 -5.8901330e-002
 -8.7524251e-002
 -1.1754227e-001
 -1.5014694e-001
 -1.8641294e-001
 -2.2659418e-001
 -2.6958441e-001
 -3.1288177e-001
 -3.5316937e-001
 -3.8729783e-001
 -4.1323994e-001
 -4.3061859e-001
 -4.4064024e-001
 -4.4553344e-001
 -4.4775315e-001
 -4.4922739e-001
 -4.5084514e-001
 -4.5228677e-001
 -4.5221803e-001
 -4.4879146e-001
 -4.4031475e-001
 -4.2587849e-001
 -4.0573407e-001
 -3.8129120e-001
 -3.5473591e-001
 -3.2840183e-001
 -3.0411275e-001
 -2.8272581e-001
 -2.6403434e-001
 -2.4705088e-001
 -2.3053142e-001
 -2.1349981e-001
 -1.9556019e-001
 -1.7693340e-001
 -1.5830672e-001
 -1.4062923e-001
 -1.2491843e-001
 -1.1207233e-001
 -1.0267817e-001
 -9.6850621e-002
 -9.4147812e-002
 -9.3587649e-002
 -9.3761803e-002
 -9.3057031e-002
 -9.0015678e-002
 -8.3825369e-002
 -7.4791283e-002
 -6.4505860e-002
 -5.5459981e-002
 -5.0108194e-002
 -4.9762532e-002
 -5.3875052e-002
 -6.0117644e-002
 -6.5265331e-002
 -6.6492925e-002
 -6.2526121e-002
 -5.4190918e-002
 -4.4170013e-002
 -3.6065228e-002
 -3.3099011e-002
 -3.6920416e-002
 -4.6966556e-002
 -6.0645366e-002
 -7.4292288e-002
 -8.4531795e-002
 -8.9494681e-002
 -8.9402865e-002
 -8.6309928e-002
 -8.3136766e-002
 -8.2407888e-002
 -8.5188824e-002
 -9.0643180e-002
 -9.6399839e-002
 -9.9601104e-002
 -9.8195567e-002
 -9.1893228e-002
 -8.2324654e-002
 -7.2312788e-002
 -6.4597742e-002
 -6.0623098e-002
 -5.9954137e-002
 -6.0579445e-002
 -5.9921590e-002
 -5.6066339e-002
 -4.8651962e-002
 -3.9045258e-002
 -2.9762075e-002
 -2.3412437e-002
 -2.1631273e-002
 -2.4436896e-002
 -3.0266269e-002
 -3.6652573e-002
 -4.1246880e-002
 -4.2747804e-002
 -4.1352839e-002
 -3.8564103e-002
 -3.6466464e-002
 -3.6812642e-002
 -4.0308265e-002
 -4.6381335e-002
 -5.3497939e-002
 -5.9843475e-002
 -6.4041233e-002
 -6.5602584e-002
 -6.4966777e-002
 -6.3181634e-002
 -6.1394665e-002
 -6.0344395e-002
 -6.0013583e-002
 -5.9574842e-002
 -5.7704644e-002
 -5.3211880e-002
 -4.5735158e-002
 -3.6132613e-002
 -2.6269763e-002
 -1.8226530e-002
 -1.3313672e-002
 -1.1443918e-002
 -1.1210949e-002
 -1.0615748e-002
 -8.0306444e-003
 -2.9163813e-003
  4.0047525e-003
  1.1132630e-002
  1.6717984e-002
  1.9619902e-002
  1.9786532e-002
  1.8260671e-002
  1.6699015e-002
  1.6616086e-002
  1.8719808e-002
  2.2678879e-002
  2.7431734e-002
  3.1846490e-002
  3.5364386e-002
  3.8299264e-002
  4.1663711e-002
  4.6623511e-002
  5.3850770e-002
  6.3101843e-002
  7.3261008e-002
  8.2873178e-002
  9.0920660e-002
  9.7429724e-002
  1.0355171e-001
  1.1104439e-001
  1.2141607e-001
  1.3517491e-001
  1.5154773e-001
  1.6876927e-001
  1.8476381e-001
  1.9789186e-001
  2.0746115e-001
  2.1384768e-001
  2.1823960e-001
  2.2212898e-001
  2.2673086e-001
  2.3252938e-001
  2.3912703e-001
  2.4547634e-001
  2.5041381e-001
  2.5326748e-001
  2.5425483e-001
  2.5447041e-001
  2.5545421e-001
  2.5854078e-001
  2.6429795e-001
  2.7231151e-001
  2.8139083e-001
  2.9006807e-001
  2.9714923e-001
  3.0209254e-001
  3.0509710e-001
  3.0690720e-001
  3.0842419e-001
  3.1026420e-001
  3.1241602e-001
  3.1412931e-001
  3.1408911e-001
  3.1082223e-001
  3.0318633e-001
  2.9076042e-001
  2.7400195e-001
  2.5413308e-001
  2.3281790e-001
  2.1175097e-001
  1.9228633e-001
  1.7520439e-001
  1.6065387e-001
  1.4823732e-001
  1.3716881e-001
  1.2645036e-001
  1.1506711e-001
  1.0222757e-001
  8.7636127e-002
  7.1711053e-002
  5.5620446e-002
  4.1047509e-002
  2.9705966e-002
  2.2750944e-002
  2.0304040e-002
  2.1294171e-002
  2.3708697e-002
  2.5190646e-002
  2.3775326e-002
  1.8502144e-002
  9.6896022e-003
 -1.2122575e-003
 -1.2136564e-002
 -2.1111044e-002
 -2.6927614e-002
 -2.9534908e-002
 -3.0014771e-002
 -3.0170530e-002
 -3.1912812e-002
 -3.6691773e-002
 -4.5165104e-002
 -5.7155620e-002
 -7.1826988e-002
 -8.7959800e-002
 -1.0424448e-001
 -1.1955954e-001
 -1.3321088e-001
 -1.4507352e-001
 -1.5556087e-001
 -1.6539397e-001
 -1.7523626e-001
 -1.8534394e-001
 -1.9540219e-001
 -2.0465066e-001
 -2.1226266e-001
 -2.1779497e-001
 -2.2145897e-001
 -2.2403579e-001
 -2.2644335e-001
 -2.2915726e-001
 -2.3177986e-001
 -2.3299789e-001
 -2.3100369e-001
 -2.2424889e-001
 -2.1222569e-001
 -1.9589781e-001
 -1.7750023e-001
 -1.5970222e-001
 -1.4447302e-001
 -1.3220143e-001
 -1.2154180e-001
 -1.1010666e-001
 -9.5694847e-002
 -7.7474508e-002
 -5.6564689e-002
 -3.5743291e-002
 -1.8402729e-002
 -7.2043170e-003
 -3.0176441e-003
 -4.6137999e-003
 -9.2491571e-003
 -1.3868025e-002
 -1.6362350e-002
 -1.6311142e-002
 -1.4900945e-002
 -1.4146236e-002
 -1.5839384e-002
 -2.0701473e-002
 -2.8016848e-002
 -3.5792865e-002
 -4.1333216e-002
 -4.2052852e-002
 -3.6323978e-002
 -2.4098761e-002
 -7.0618963e-003
  1.1805544e-002
  2.9134723e-002
  4.2211938e-002
  4.9750512e-002
  5.2119167e-002
  5.0997404e-002
  4.8638379e-002
  4.7017793e-002
  4.7149807e-002
  4.8799727e-002
  5.0718261e-002
  5.1342798e-002
  4.9690702e-002
  4.6025376e-002
  4.1936427e-002
  3.9758761e-002
  4.1617843e-002
  4.8608997e-002
  6.0554230e-002
  7.6461180e-002
  9.5415360e-002
  1.1738886e-001
  1.4348228e-001
  1.7541121e-001
  2.1444530e-001
  2.6030429e-001
  3.1057619e-001
  3.6102660e-001
  4.0679473e-001
  4.4407203e-001
  4.7161341e-001
  4.9147353e-001
  5.0868941e-001
  5.3008354e-001
  5.6270137e-001
  6.1245888e-001
  6.8336469e-001
  7.7734708e-001
  8.9444371e-001
  1.0330192e+000
  1.1897857e+000
  1.3596534e+000
  1.5357073e+000
  1.7096997e+000
  1.8732302e+000
  2.0192992e+000
  2.1434572e+000
  2.2437161e+000
  2.3188848e+000
  2.3658534e+000
  2.3771027e+000
  2.3399281e+000
  2.2383357e+000
  2.0574681e+000
  1.7891926e+000
  1.4366987e+000
  1.0160351e+000
  5.5355332e-001
  7.9863788e-002
 -3.7754624e-001
 -8.0021878e-001
 -1.1809257e+000
 -1.5215279e+000
 -1.8276914e+000
 -2.1028851e+000
 -2.3442091e+000
 -2.5416672e+000
 -2.6810016e+000
 -2.7488041e+000
 -2.7378271e+000
 -2.6504616e+000
 -2.4991443e+000
 -2.3036835e+000
 -2.0866361e+000
 -1.8684469e+000
 -1.6638750e+000
 -1.4804937e+000
 -1.3192182e+000
 -1.1762607e+000
 -1.0457241e+000
 -9.2209979e-001
 -8.0208733e-001
 -6.8534564e-001
 -5.7405425e-001
 -4.7151016e-001
 -3.8032493e-001
 -3.0096037e-001
 -2.3122334e-001
 -1.6693429e-001
 -1.0345687e-001
 -3.7390166e-002
  3.2307783e-002
  1.0416109e-001
  1.7487977e-001
  2.4045679e-001
  2.9713337e-001
  3.4192968e-001
  3.7275707e-001
  3.8835069e-001
  3.8828969e-001
  3.7322064e-001
  3.4517008e-001
  3.0765883e-001
  2.6533506e-001
  2.2306313e-001
  1.8473958e-001
  1.5234129e-001
  1.2566863e-001
  1.0293630e-001
  8.1971246e-002
  6.1503624e-002
  4.1986961e-002
  2.5556218e-002
  1.5081464e-002
  1.2699166e-002
  1.8513671e-002
  3.0147176e-002
  4.3416933e-002
  5.3833996e-002
  5.8203742e-002
  5.5610160e-002
  4.7437381e-002
  3.6552266e-002
  2.6081013e-002
  1.8280093e-002
  1.3896799e-002
  1.2219137e-002
  1.1759235e-002
  1.1239828e-002
  1.0380000e-002
  1.0046573e-002
  1.1669927e-002
  1.6247475e-002
  2.3517271e-002
  3.1810484e-002
  3.8716012e-002
  4.2227673e-002
  4.1764336e-002
  3.8517286e-002
  3.4942189e-002
  3.3656903e-002
  3.6279184e-002
  4.2711728e-002
  5.1122315e-002
  5.8562208e-002
  6.1969542e-002
  5.9237341e-002
  5.0027801e-002
  3.6057604e-002
  2.0694699e-002
  7.9161375e-003
  9.2975995e-004
  9.5018898e-004
  6.6299271e-003
  1.4439025e-002
  1.9930292e-002
  1.9467101e-002
  1.1772373e-002
 -1.3372662e-003
 -1.5428155e-002
 -2.5102933e-002
 -2.6287842e-002
 -1.8228843e-002
 -4.2519760e-003
  9.2083398e-003
  1.5047647e-002
  8.4193237e-003
 -1.1117019e-002
 -3.9198840e-002
 -6.8226963e-002
 -9.0240020e-002
 -9.9882183e-002
 -9.6240230e-002
 -8.2834530e-002
 -6.5825961e-002
 -5.1228611e-002
 -4.2314453e-002
 -3.8291107e-002
 -3.4756270e-002
 -2.5641161e-002
 -5.7250690e-003
  2.7375523e-002
  7.2509462e-002
  1.2570502e-001
  1.8178708e-001
  2.3607421e-001
  2.8544526e-001
  3.2850172e-001
  3.6505082e-001
  3.9541003e-001
  4.1994977e-001
  4.3897602e-001
  4.5278854e-001
  4.6171855e-001
  4.6608455e-001
  4.6611537e-001
  4.6188855e-001
  4.5329487e-001
  4.4006446e-001
  4.2194213e-001
  3.9905179e-001
  3.7229557e-001
  3.4344873e-001
  3.1467791e-001
  2.8759063e-001
  2.6236570e-001
  2.3761614e-001
  2.1122016e-001
  1.8168349e-001
  1.4918612e-001
  1.1564619e-001
  8.3768145e-002
  5.5658208e-002
  3.1780784e-002
  1.0749298e-002
 -1.0025464e-002
 -3.3166806e-002
 -6.0136956e-002
 -9.0511515e-002
 -1.2207818e-001
 -1.5178888e-001
 -1.7715830e-001
 -1.9739837e-001
 -2.1365250e-001
 -2.2817414e-001
 -2.4292243e-001
 -2.5842259e-001
 -2.7357982e-001
 -2.8652162e-001
 -2.9589380e-001
 -3.0178778e-001
 -3.0574347e-001
 -3.0981488e-001
 -3.1518420e-001
 -3.2105548e-001
 -3.2446412e-001
 -3.2122687e-001
 -3.0769948e-001
 -2.8257823e-001
 -2.4789742e-001
 -2.0868090e-001
 -1.7127332e-001
 -1.4096560e-001
 -1.1988749e-001
 -1.0609617e-001
 -9.4337668e-002
 -7.8261843e-002
 -5.3215975e-002
 -1.8427418e-002
  2.2401908e-002
  6.2384829e-002
  9.4082686e-002
  1.1236727e-001
  1.1634113e-001
  1.0959683e-001
  9.8792380e-002
  9.1144810e-002
  9.1789208e-002
  1.0196436e-001
  1.1869893e-001
  1.3613960e-001
  1.4801603e-001
  1.5023231e-001
  1.4248995e-001
  1.2827489e-001
  1.1327773e-001
  1.0298907e-001
  1.0051312e-001
  1.0548214e-001
  1.1444621e-001
  1.2248663e-001
  1.2531625e-001
  1.2097761e-001
  1.1047648e-001
  9.7174016e-002
  8.5285831e-002
  7.8176859e-002
  7.7165338e-002
  8.1270457e-002
  8.7903606e-002
  9.4110911e-002
  9.7786426e-002
  9.8357817e-002
  9.6742013e-002
  9.4711827e-002
  9.4029121e-002
  9.5715449e-002
  9.9703903e-002
  1.0494417e-001
  1.0987567e-001
  1.1306428e-001
  1.1374364e-001
  1.1204351e-001
  1.0882376e-001
  1.0520698e-001
  1.0202836e-001
  9.9439837e-002
  9.6821540e-002
  9.3025106e-002
  8.6854677e-002
  7.7605780e-002
  6.5446745e-002
  5.1467227e-002
  3.7340671e-002
  2.4713776e-002
  1.4570870e-002
  6.8470140e-003
  4.5051360e-004
 -6.3376152e-003
 -1.5272813e-002
 -2.7584073e-002
 -4.3599064e-002
 -6.2642511e-002
 -8.3231937e-002
 -1.0352291e-001
 -1.2186939e-001
 -1.3730982e-001
 -1.4980898e-001
 -1.6017632e-001
 -1.6970583e-001
 -1.7968687e-001
 -1.9097132e-001
 -2.0373646e-001
 -2.1749146e-001
 -2.3128566e-001
 -2.4400883e-001
 -2.5464389e-001
 -2.6236817e-001
 -2.6650781e-001
 -2.6647170e-001
 -2.6182921e-001
 -2.5259419e-001
 -2.3959114e-001
 -2.2464137e-001
 -2.1033451e-001
 -1.9934812e-001
 -1.9353037e-001
 -1.9311796e-001
 -1.9644793e-001
 -2.0036317e-001
 -2.0126787e-001
 -1.9652043e-001
 -1.8563804e-001
 -1.7075238e-001
 -1.5599229e-001
 -1.4592711e-001
 -1.4367486e-001
 -1.4949835e-001
 -1.6053781e-001
 -1.7183432e-001
 -1.7822661e-001
 -1.7632402e-001
 -1.6572982e-001
 -1.4900814e-001
 -1.3041932e-001
 -1.1398146e-001
 -1.0172712e-001
 -9.2952511e-002
 -8.4798734e-002
 -7.3866280e-002
 -5.8066697e-002
 -3.7811398e-002
 -1.5964882e-002
  3.4194602e-003
  1.6984246e-002
  2.3677070e-002
  2.5311566e-002
  2.5802880e-002
  2.9419421e-002
  3.8838899e-002
  5.3880661e-002
  7.1493517e-002
  8.7033726e-002
  9.6291767e-002
  9.7378573e-002
  9.1640183e-002
  8.3206736e-002
  7.7372587e-002
  7.8477235e-002
  8.8139555e-002
  1.0455509e-001
  1.2316033e-001
  1.3843038e-001
  1.4609528e-001
  1.4484416e-001
  1.3677546e-001
  1.2640853e-001
  1.1873860e-001
  1.1723237e-001
  1.2260379e-001
  1.3276821e-001
  1.4384818e-001
  1.5175300e-001
  1.5374106e-001
  1.4943343e-001
  1.4092896e-001
  1.3196620e-001
  1.2644128e-001
  1.2687749e-001
  1.3347585e-001
  1.4410682e-001
  1.5518027e-001
  1.6298503e-001
  1.6496693e-001
  1.6050249e-001
  1.5093784e-001
  1.3892338e-001
  1.2732868e-001
  1.1818231e-001
  1.1206050e-001
  1.0813123e-001
  1.0474882e-001
  1.0025763e-001
  9.3627067e-002
  8.4702345e-002
  7.4093517e-002
  6.2880995e-002
  5.2315466e-002
  4.3584211e-002
  3.7622340e-002
  3.4940087e-002
  3.5490554e-002
  3.8638060e-002
  4.3263142e-002
  4.7983827e-002
  5.1436957e-002
  5.2567508e-002
  5.0888121e-002
  4.6654965e-002
  4.0867143e-002
  3.5003293e-002
  3.0516236e-002
  2.8271007e-002
  2.8204343e-002
  2.9404047e-002
  3.0583060e-002
  3.0700328e-002
  2.9408481e-002
  2.7128642e-002
  2.4773922e-002
  2.3315504e-002
  2.3414546e-002
  2.5250570e-002
  2.8556583e-002
  3.2795547e-002
  3.7387730e-002
  4.1897016e-002
  4.6098485e-002
  4.9897215e-002
  5.3154649e-002
  5.5560256e-002
  5.6684426e-002
  5.6227597e-002
  5.4311801e-002
  5.1582549e-002
  4.8983456e-002
  4.7281065e-002
  4.6606188e-002
  4.6306525e-002
  4.5241363e-002
  4.2389111e-002
  3.7449557e-002
  3.1123992e-002
  2.4929809e-002
  2.0628431e-002
  1.9499456e-002
  2.1740162e-002
  2.6228398e-002
  3.0784118e-002
  3.2907652e-002
  3.0776095e-002
  2.4108580e-002
  1.4480808e-002
  4.8626181e-003
 -1.4822727e-003
 -2.2608110e-003
  2.9800404e-003
  1.2723308e-002
  2.4073124e-002
  3.3763859e-002
  3.9200843e-002
  3.9227863e-002
  3.4444521e-002
  2.6998241e-002
  1.9876144e-002
  1.5873548e-002
  1.6589429e-002
  2.1865733e-002
  2.9930862e-002
  3.8166823e-002
  4.4104125e-002
  4.6179320e-002
  4.4004012e-002
  3.8208243e-002
  3.0100461e-002
  2.1344501e-002
  1.3694956e-002
  8.7225325e-003
  7.4831323e-003
  1.0193137e-002
  1.6059048e-002
  2.3396562e-002
  3.0069517e-002
  3.4145510e-002
  3.4564449e-002
  3.1581532e-002
  2.6787442e-002
  2.2627608e-002
  2.1524307e-002
  2.4894990e-002
  3.2465129e-002
  4.2211418e-002
  5.1029096e-002
  5.5888955e-002
  5.5007157e-002
  4.8538417e-002
  3.8524817e-002
  2.8152175e-002
  2.0619121e-002
  1.8029163e-002
  2.0683558e-002
  2.7017624e-002
  3.4206955e-002
  3.9219959e-002
  3.9913509e-002
  3.5758464e-002
  2.7946968e-002
  1.8883207e-002
  1.1282224e-002
  7.2229387e-003
  7.4914317e-003
  1.1418509e-002
  1.7216169e-002
  2.2637155e-002
  2.5694304e-002
  2.5203170e-002
  2.1019102e-002
  1.3966176e-002
  5.5414999e-003
 -2.4961967e-003
 -8.5542788e-003
 -1.1562556e-002
 -1.1184258e-002
 -7.8387446e-003
 -2.5368638e-003
  3.4307725e-003
  8.8780409e-003
  1.3070993e-002
  1.5915729e-002
  1.7904040e-002
  1.9829760e-002
  2.2391111e-002
  2.5848592e-002
  2.9887166e-002
  3.3741137e-002
  3.6518757e-002
  3.7572178e-002
  3.6744614e-002
  3.4392794e-002
  3.1189765e-002
  2.7807014e-002
  2.4618555e-002
  2.1557654e-002
  1.8200666e-002
  1.4061489e-002
  8.9745156e-003
  3.3747666e-003
 -1.6904569e-003
 -4.8570343e-003
 -4.9284468e-003
 -1.3416705e-003
  5.5725444e-003
  1.4624472e-002
  2.4071384e-002
  3.2087080e-002
  3.7251352e-002
  3.8924526e-002
  3.7412569e-002
  3.3883935e-002
  3.0054005e-002
  2.7697433e-002
  2.8091477e-002
  3.1546918e-002
  3.7221642e-002
  4.3363972e-002
  4.7956062e-002
  4.9497889e-002
  4.7558903e-002
  4.2841103e-002
  3.6779104e-002
  3.0944191e-002
  2.6555951e-002
  2.4254321e-002
  2.4103837e-002
  2.5718601e-002
  2.8413844e-002
  3.1338897e-002
  3.3582551e-002
  3.4266951e-002
  3.2665059e-002
  2.8369584e-002
  2.1490440e-002
  1.2786937e-002
  3.6105268e-003
 -4.4071301e-003
 -9.8515300e-003
 -1.2011471e-002
 -1.1132068e-002
 -8.3176492e-003
 -5.1354988e-003
 -3.0974744e-003
 -3.2211122e-003
 -5.8096207e-003
 -1.0492377e-002
 -1.6475600e-002
 -2.2887005e-002
 -2.9070872e-002
 -3.4714119e-002
 -3.9766099e-002
 -4.4233838e-002
 -4.8022022e-002
 -5.0959063e-002
 -5.2997293e-002
 -5.4412407e-002
 -5.5803919e-002
 -5.7843328e-002
 -6.0905118e-002
 -6.4796656e-002
 -6.8734582e-002
 -7.1572980e-002
 -7.2175063e-002
 -6.9785088e-002
 -6.4287659e-002
 -5.6295161e-002
 -4.7047113e-002
 -3.8134378e-002
 -3.1096950e-002
 -2.6997186e-002
 -2.6113400e-002
 -2.7884038e-002
 -3.1143999e-002
 -3.4573469e-002
 -3.7192709e-002
 -3.8724320e-002
 -3.9704607e-002
 -4.1324271e-002
 -4.5068628e-002
 -5.2270142e-002
 -6.3683535e-002
 -7.9185583e-002
 -9.7702464e-002
 -1.1743256e-001
 -1.3632513e-001
 -1.5264258e-001
 -1.6537253e-001
 -1.7431287e-001
 -1.7979604e-001
 -1.8217739e-001
 -1.8132351e-001
 -1.7635200e-001
 -1.6577794e-001
 -1.4803660e-001
 -1.2215598e-001
 -8.8250296e-002
 -4.7577748e-002
 -2.1395932e-003
  4.5943392e-002
  9.4934518e-002
  1.4364371e-001
  1.9127047e-001
  2.3712451e-001
  2.8042510e-001
  3.2025779e-001
  3.5563806e-001
  3.8558242e-001
  4.0912437e-001
  4.2529254e-001
  4.3313752e-001
  4.3190712e-001
  4.2139911e-001
  4.0238041e-001
  3.7683491e-001
  3.4779918e-001
  3.1871051e-001
  2.9244581e-001
  2.7042142e-001
  2.5214502e-001
  2.3544996e-001
  2.1737081e-001
  1.9535102e-001
  1.6831971e-001
  1.3720149e-001
  1.0462546e-001
  7.3911685e-002
  4.7721885e-002
  2.6931580e-002
  1.0207860e-002
 -5.5286170e-003
 -2.3969369e-002
 -4.8095723e-002
 -7.9187322e-002
 -1.1649925e-001
 -1.5765467e-001
 -1.9952172e-001
 -2.3918832e-001
 -2.7467792e-001
 -3.0522901e-001
 -3.3117244e-001
 -3.5356331e-001
 -3.7372398e-001
 -3.9278890e-001
 -4.1130166e-001
 -4.2893700e-001
 -4.4446123e-001
 -4.5602086e-001
 -4.6172775e-001
 -4.6034323e-001
 -4.5176963e-001
 -4.3712016e-001
 -4.1833796e-001
 -3.9755181e-001
 -3.7645634e-001
 -3.5595257e-001
 -3.3614094e-001
 -3.1661087e-001
 -2.9686587e-001
 -2.7668976e-001
 -2.5630762e-001
 -2.3630470e-001
 -2.1737811e-001
 -2.0006084e-001
 -1.8455680e-001
 -1.7076757e-001
 -1.5849094e-001
 -1.4766613e-001
 -1.3849843e-001
 -1.3136067e-001
 -1.2651068e-001
 -1.2378850e-001
 -1.2248310e-001
 -1.2146785e-001
 -1.1955364e-001
 -1.1589312e-001
 -1.1025926e-001
 -1.0310369e-001
 -9.5401928e-002
 -8.8349353e-002
 -8.2987909e-002
 -7.9861738e-002
 -7.8823814e-002
 -7.9096056e-002
 -7.9585340e-002
 -7.9319837e-002
 -7.7794796e-002
 -7.5072174e-002
 -7.1629982e-002
 -6.8092058e-002
 -6.4994269e-002
 -6.2665203e-002
 -6.1206460e-002
 -6.0526878e-002
 -6.0409878e-002
 -6.0608527e-002
 -6.0934915e-002
 -6.1282290e-002
 -6.1553026e-002
 -6.1552984e-002
 -6.0964268e-002
 -5.9455348e-002
 -5.6868912e-002
 -5.3355386e-002
 -4.9362258e-002
 -4.5503504e-002
 -4.2413670e-002
 -4.0669244e-002
 -4.0765362e-002
 -4.3065407e-002
 -4.7666765e-002
 -5.4224825e-002
 -6.1856663e-002
 -6.9237568e-002
 -7.4918754e-002
 -7.7790325e-002
 -7.7534641e-002
 -7.4882784e-002
 -7.1519490e-002
 -6.9592411e-002
 -7.0946155e-002
 -7.6350540e-002
 -8.5043754e-002
 -9.4818394e-002
 -1.0266679e-001
 -1.0576814e-001
 -1.0246047e-001
 -9.2853869e-002
 -7.8878783e-002
 -6.3750593e-002
 -5.1008454e-002
 -4.3419941e-002
 -4.2103236e-002
 -4.6171206e-002
 -5.3040369e-002
 -5.9321486e-002
 -6.1999519e-002
 -5.9494321e-002
 -5.2217334e-002
 -4.2406844e-002
 -3.3282465e-002
 -2.7815840e-002
 -2.7572244e-002
 -3.2068524e-002
 -3.8906689e-002
 -4.4643620e-002
 -4.6063229e-002
 -4.1350115e-002
 -3.0700831e-002
 -1.6146305e-002
 -6.9610341e-004
  1.2810213e-002
  2.2678147e-002
  2.8819475e-002
  3.2595548e-002
  3.6164951e-002
  4.1607126e-002
  5.0149108e-002
  6.1776251e-002
  7.5354196e-002
  8.9166679e-002
  1.0158804e-001
  1.1157793e-001
  1.1883380e-001
  1.2365794e-001
  1.2673091e-001
  1.2895614e-001
  1.3140676e-001
  1.3528797e-001
  1.4180364e-001
  1.5187947e-001
  1.6579792e-001
  1.8288968e-001
  2.0146184e-001
  2.1909310e-001
  2.3329064e-001
  2.4232266e-001
  2.4590312e-001
  2.4540415e-001
  2.4344232e-001
  2.4296260e-001
  2.4618206e-001
  2.5381728e-001
  2.6487442e-001
  2.7702779e-001
  2.8739672e-001
  2.9343686e-001
  2.9367628e-001
  2.8809558e-001
  2.7805078e-001
  2.6577794e-001
  2.5367409e-001
  2.4363396e-001
  2.3666425e-001
  2.3282433e-001
  2.3138218e-001
  2.3103819e-001
  2.3015750e-001
  2.2705123e-001
  2.2034514e-001
  2.0936931e-001
  1.9440533e-001
  1.7664677e-001
  1.5786374e-001
  1.3990925e-001
  1.2426327e-001
  1.1175813e-001
  1.0252782e-001
  9.6137488e-002
  9.1802490e-002
  8.8597847e-002
  8.5592240e-002
  8.1913246e-002
  7.6817684e-002
  6.9839159e-002
  6.1001529e-002
  5.0988642e-002
  4.1128321e-002
  3.3106269e-002
  2.8441561e-002
  2.7880658e-002
  3.0949321e-002
  3.5888502e-002
  4.0067506e-002
  4.0761593e-002
  3.6009950e-002
  2.5229785e-002
  9.3672680e-003
 -9.4506163e-003
 -2.8623463e-002
 -4.5890601e-002
 -5.9967843e-002
 -7.0791894e-002
 -7.9307382e-002
 -8.6915433e-002
 -9.4836285e-002
 -1.0365146e-001
 -1.1317803e-001
 -1.2265927e-001
 -1.3113220e-001
 -1.3780272e-001
 -1.4230072e-001
 -1.4474905e-001
 -1.4564136e-001
 -1.4558701e-001
 -1.4503258e-001
 -1.4408307e-001
 -1.4251394e-001
 -1.3999374e-001
 -1.3643592e-001
 -1.3229843e-001
 -1.2862388e-001
 -1.2671741e-001
 -1.2756033e-001
 -1.3123743e-001
 -1.3669403e-001
 -1.4199660e-001
 -1.4501604e-001
 -1.4422392e-001
 -1.3922802e-001
 -1.3081274e-001
 -1.2050131e-001
 -1.0987163e-001
 -9.9939364e-002
 -9.0865398e-002
 -8.2093401e-002
 -7.2833198e-002
 -6.2641694e-002
 -5.1794129e-002
 -4.1237535e-002
 -3.2146003e-002
 -2.5332131e-002
 -2.0863630e-002
 -1.8115100e-002
 -1.6216535e-002
 -1.4613298e-002
 -1.3390359e-002
 -1.3173300e-002
 -1.4683956e-002
 -1.8221486e-002
 -2.3354263e-002
 -2.8972196e-002
 -3.3669115e-002
 -3.6286704e-002
 -3.6387375e-002
 -3.4444450e-002
 -3.1651067e-002
 -2.9423172e-002
 -2.8820004e-002
 -3.0138772e-002
 -3.2844669e-002
 -3.5842075e-002
 -3.7961720e-002
 -3.8469301e-002
 -3.7390519e-002
 -3.5493963e-002
 -3.3889241e-002
 -3.3373540e-002
 -3.3822181e-002
 -3.3950525e-002
 -3.1613871e-002
 -2.4534074e-002
 -1.1118628e-002
  8.9987048e-003
  3.4919397e-002
  6.4939747e-002
  9.7304960e-002
  1.3094240e-001
  1.6585580e-001
  2.0297481e-001
  2.4346718e-001
  2.8777531e-001
  3.3482377e-001
  3.8184386e-001
  4.2502519e-001
  4.6081419e-001
  4.8733310e-001
  5.0530080e-001
  5.1807200e-001
  5.3084482e-001
  5.4946366e-001
  5.7935615e-001
  6.2495230e-001
  6.8957974e-001
  7.7553819e-001
  8.8399938e-001
  1.0145728e+000
  1.1646820e+000
  1.3291291e+000
  1.5002522e+000
  1.6688752e+000
  1.8258574e+000
  1.9636505e+000
  2.0771038e+000
  2.1629910e+000
  2.2183147e+000
  2.2381096e+000
  2.2138903e+000
  2.1338143e+000
  1.9850373e+000
  1.7577939e+000
  1.4498367e+000
  1.0694285e+000
  6.3539652e-001
  1.7381909e-001
 -2.8767267e-001
 -7.2588873e-001
 -1.1260920e+000
 -1.4826219e+000
 -1.7962149e+000
 -2.0694568e+000
 -2.3024222e+000
 -2.4902693e+000
 -2.6236372e+000
 -2.6915618e+000
 -2.6857142e+000
 -2.6043277e+000
 -2.4543316e+000
 -2.2508884e+000
 -2.0145052e+000
 -1.7667752e+000
 -1.5262271e+000
 -1.3055588e+000
 -1.1108522e+000
 -9.4257099e-001
 -7.9759541e-001
 -6.7143204e-001
 -5.5996665e-001
 -4.6047753e-001
 -3.7188486e-001
 -2.9434507e-001
 -2.2839212e-001
 -1.7394327e-001
 -1.2957187e-001
 -9.2387696e-002
 -5.8617501e-002
 -2.4652869e-002
  1.1887834e-002
  5.1530740e-002
  9.2981831e-002
  1.3375792e-001
  1.7111302e-001
  2.0288135e-001
  2.2793192e-001
  2.4611135e-001
  2.5777964e-001
  2.6323290e-001
  2.6235152e-001
  2.5467224e-001
  2.3983562e-001
  2.1815571e-001
  1.9100488e-001
  1.6080974e-001
  1.3064346e-001
  1.0357426e-001
  8.2009578e-002
  6.7246099e-002
  5.9337645e-002
  5.7276919e-002
  5.9382819e-002
  6.3731228e-002
  6.8497443e-002
  7.2171609e-002
  7.3690117e-002
  7.2541550e-002
  6.8860415e-002
  6.3458445e-002
  5.7713190e-002
  5.3273045e-002
  5.1631371e-002
  5.3698796e-002
  5.9503398e-002
  6.8094195e-002
  7.7683133e-002
  8.6047413e-002
  9.1162123e-002
  9.1902733e-002
  8.8524072e-002
  8.2627325e-002
  7.6535708e-002
  7.2318774e-002
  7.0925532e-002
  7.1838892e-002
  7.3368902e-002
  7.3368542e-002
  7.0006171e-002
  6.2316223e-002
  5.0441759e-002
  3.5611055e-002
  1.9903380e-002
  5.8295623e-003
 -4.2294463e-003
 -8.6085176e-003
 -6.7886012e-003
  4.8889906e-004
  1.1472836e-002
  2.3924991e-002
  3.5728155e-002
  4.5389679e-002
  5.2315112e-002
  5.6805741e-002
  5.9797503e-002
  6.2414679e-002
  6.5472036e-002
  6.9103960e-002
  7.2684099e-002
  7.5095579e-002
  7.5246206e-002
  7.2579432e-002
  6.7310577e-002
  6.0261563e-002
  5.2406020e-002
  4.4412887e-002
  3.6463703e-002
  2.8427723e-002
  2.0248425e-002
  1.2277231e-002
  5.3454105e-003
  5.3596394e-004
 -1.2183059e-003
  4.7646683e-004
  5.2402065e-003
  1.1900242e-002
  1.8706093e-002
  2.3762334e-002
  2.5586505e-002
  2.3591186e-002
  1.8259861e-002
  1.0912082e-002
  3.1664227e-003
 -3.6493360e-003
 -8.9114063e-003
 -1.2833694e-002
 -1.6336350e-002
 -2.0714692e-002
 -2.7187271e-002
 -3.6427197e-002
 -4.8225951e-002
 -6.1455838e-002
 -7.4421690e-002
 -8.5513184e-002
 -9.3873730e-002
 -9.9733118e-002
 -1.0419006e-001
 -1.0851444e-001
 -1.1330050e-001
 -1.1789267e-001
 -1.2038329e-001
 -1.1820784e-001
 -1.0907340e-001
 -9.1798766e-002
 -6.6707897e-002
 -3.5449089e-002
 -3.6870388e-004
  3.6271763e-002
  7.2920417e-002
  1.0898273e-001
  1.4465576e-001
  1.8050446e-001
  2.1702969e-001
  2.5441067e-001
  2.9242770e-001
  3.3042945e-001
  3.6722199e-001
  4.0091953e-001
  4.2896635e-001
  4.4855063e-001
  4.5743350e-001
  4.5492908e-001
  4.4258040e-001
  4.2411178e-001
  4.0450431e-001
  3.8843594e-001
  3.7867460e-001
  3.7512056e-001
  3.7495616e-001
  3.7386157e-001
  3.6775249e-001
  3.5426977e-001
  3.3342036e-001
  3.0721456e-001
  2.7860658e-001
  2.5028823e-001
  2.2383344e-001
  1.9943070e-001
  1.7614493e-001
  1.5246239e-001
  1.2684158e-001
  9.8082837e-002
  6.5472330e-002
  2.8783108e-002
 -1.1732740e-002
 -5.5277654e-002
 -1.0040390e-001
 -1.4500897e-001
 -1.8657295e-001
 -2.2266693e-001
 -2.5159580e-001
 -2.7291739e-001
 -2.8757434e-001
 -2.9750340e-001
 -3.0481230e-001
 -3.1084510e-001
 -3.1556748e-001
 -3.1759895e-001
 -3.1492025e-001
 -3.0594177e-001
 -2.9042315e-001
 -2.6979420e-001
 -2.4670684e-001
 -2.2400730e-001
 -2.0359108e-001
 -1.8567168e-001
 -1.6882216e-001
 -1.5080004e-001
 -1.2978955e-001
 -1.0547250e-001
 -7.9393733e-002
 -5.4414718e-002
 -3.3497444e-002
 -1.8398832e-002
 -8.9002443e-003
 -2.9254377e-003
  2.5312973e-003
  1.0109458e-002
  2.0995465e-002
  3.4494021e-002
  4.8402532e-002
  5.9990162e-002
  6.7143406e-002
  6.9197894e-002
  6.7133803e-002
  6.3084270e-002
  5.9377215e-002
  5.7510311e-002
  5.7491032e-002
  5.7834617e-002
  5.6233598e-002
  5.0606061e-002
  4.0052073e-002
  2.5296899e-002
  8.4452286e-003
 -7.8214068e-003
 -2.1248991e-002
 -3.0809900e-002
 -3.7005754e-002
 -4.1597015e-002
 -4.6893421e-002
 -5.4874361e-002
 -6.6443094e-002
 -8.1063562e-002
 -9.6903279e-002
 -1.1143987e-001
 -1.2233191e-001
 -1.2826049e-001
 -1.2944860e-001
 -1.2766383e-001
 -1.2568511e-001
 -1.2640990e-001
 -1.3192245e-001
 -1.4286972e-001
 -1.5837844e-001
 -1.7652659e-001
 -1.9514710e-001
 -2.1260870e-001
 -2.2826187e-001
 -2.4242696e-001
 -2.5601690e-001
 -2.7001675e-001
 -2.8504777e-001
 -3.0116065e-001
 -3.1788728e-001
 -3.3447887e-001
 -3.5019507e-001
 -3.6450600e-001
 -3.7713198e-001
 -3.8794830e-001
 -3.9686059e-001
 -4.0375581e-001
 -4.0855835e-001
 -4.1133133e-001
 -4.1232509e-001
 -4.1191084e-001
 -4.1042288e-001
 -4.0801309e-001
 -4.0463997e-001
 -4.0024624e-001
 -3.9505265e-001
 -3.8978302e-001
 -3.8560972e-001
 -3.8371253e-001
 -3.8455933e-001
 -3.8724753e-001
 -3.8933759e-001
 -3.8745487e-001
 -3.7856552e-001
 -3.6142824e-001
 -3.3751839e-001
 -3.1086379e-001
 -2.8669921e-001
 -2.6942548e-001
 -2.6073962e-001
 -2.5876516e-001
 -2.5858273e-001
 -2.5397865e-001
 -2.3976108e-001
 -2.1378818e-001
 -1.7794349e-001
 -1.3764975e-001
 -1.0004639e-001
 -7.1489346e-002
 -5.5336876e-002
 -5.0895034e-002
 -5.3924286e-002
 -5.8462568e-002
 -5.9195329e-002
 -5.3428269e-002
 -4.1940781e-002
 -2.8481311e-002
 -1.8184918e-002
 -1.5553039e-002
 -2.2739754e-002
 -3.8739959e-002
 -5.9736280e-002
 -8.0435857e-002
 -9.5857871e-002
 -1.0287128e-001
 -1.0091161e-001
 -9.1667951e-002
 -7.7954757e-002
 -6.2287494e-002
 -4.5767968e-002
 -2.7745596e-002
 -6.3980132e-003
  2.0036452e-002
  5.1974836e-002
  8.7819682e-002
  1.2428248e-001
  1.5756474e-001
  1.8480284e-001
  2.0504782e-001
  2.1931044e-001
  2.2969123e-001
  2.3806068e-001
  2.4494344e-001
  2.4914097e-001
  2.4828447e-001
  2.4009056e-001
  2.2374891e-001
  2.0075253e-001
  1.7468468e-001
  1.4995998e-001
  1.3005874e-001
  1.1609484e-001
  1.0643162e-001
  9.7563448e-002
  8.5870967e-002
  6.9442769e-002
  4.9123468e-002
  2.8296931e-002
  1.1475949e-002
  2.3026571e-003
  1.8434422e-003
  7.9664447e-003
  1.6147459e-002
  2.1430607e-002
  2.0722607e-002
  1.4369125e-002
  6.2017773e-003
  1.9188699e-003
  6.4879395e-003
  2.1793454e-002
  4.5665342e-002
  7.2737742e-002
  9.6686236e-002
  1.1276133e-001
  1.1946841e-001
  1.1871374e-001
  1.1446877e-001
  1.1065087e-001
  1.0921828e-001
  1.0933500e-001
  1.0795240e-001
  1.0148845e-001
  8.7757255e-002
  6.7183665e-002
  4.2715093e-002
  1.8529871e-002
 -1.7384962e-003
 -1.6330286e-002
 -2.5605857e-002
 -3.1183789e-002
 -3.4528997e-002
 -3.5811287e-002
 -3.3680202e-002
 -2.6088985e-002
 -1.1718756e-002
  8.7858958e-003
  3.2478697e-002
  5.4927423e-002
  7.1847019e-002
  8.0776876e-002
  8.1978054e-002
  7.8098615e-002
  7.2759153e-002
  6.8733072e-002
  6.6584005e-002
  6.4397363e-002
  5.8713464e-002
  4.6193046e-002
  2.5226455e-002
 -3.1942409e-003
 -3.5591350e-002
 -6.6911674e-002
 -9.1822514e-002
 -1.0600834e-001
 -1.0718472e-001
 -9.5617842e-002
 -7.4010452e-002
 -4.6755577e-002
 -1.8747213e-002
  5.9196170e-003
  2.4991827e-002
  3.8544218e-002
  4.8744808e-002
  5.8915506e-002
  7.2110828e-002
  8.9643251e-002
  1.1011520e-001
  1.2945417e-001
  1.4211060e-001
  1.4305846e-001
  1.2980320e-001
  1.0351865e-001
  6.8780999e-002
  3.1982010e-002
 -9.0712464e-004
 -2.6265251e-002
 -4.3646272e-002
 -5.5226322e-002
 -6.4228181e-002
 -7.3105221e-002
 -8.2311448e-002
 -9.0168292e-002
 -9.3837507e-002
 -9.0929970e-002
 -8.0988679e-002
 -6.6103726e-002
 -5.0295544e-002
 -3.7918186e-002
 -3.1869359e-002
 -3.2510434e-002
 -3.7804718e-002
 -4.4522538e-002
 -4.9842944e-002
 -5.2578209e-002
 -5.3541302e-002
 -5.5023492e-002
 -5.9687302e-002
 -6.9310877e-002
 -8.3810531e-002
 -1.0089537e-001
 -1.1654958e-001
 -1.2625265e-001
 -1.2651541e-001
 -1.1611867e-001
 -9.6533989e-002
 -7.1351278e-002
 -4.4962079e-002
 -2.1042158e-002
 -1.4265997e-003
  1.4210555e-002
  2.7774839e-002
  4.1518288e-002
  5.6685184e-002
  7.2653490e-002
  8.6986004e-002
  9.6371791e-002
  9.8006891e-002
  9.0777375e-002
  7.5740379e-002
  5.5738630e-002
  3.4351606e-002
  1.4631533e-002
 -1.8800274e-003
 -1.5491457e-002
 -2.7932990e-002
 -4.1322421e-002
 -5.6952470e-002
 -7.4463679e-002
 -9.1838613e-002
 -1.0624967e-001
 -1.1531904e-001
 -1.1811584e-001
 -1.1538838e-001
 -1.0898730e-001
 -1.0087280e-001
 -9.2265283e-002
 -8.3348998e-002
 -7.3609028e-002
 -6.2559254e-002
 -5.0440572e-002
 -3.8486519e-002
 -2.8553858e-002
 -2.2236628e-002
 -1.9902596e-002
 -2.0227244e-002
 -2.0603407e-002
 -1.8328434e-002
 -1.1999619e-002
 -2.3926316e-003
  7.6523796e-003
  1.4324792e-002
  1.4448912e-002
  6.9072204e-003
 -6.7302171e-003
 -2.2640572e-002
 -3.6070623e-002
 -4.3013369e-002
 -4.1580053e-002
 -3.2548863e-002
 -1.8914133e-002
 -4.6658715e-003
  6.6734820e-003
  1.3166418e-002
  1.4836019e-002
  1.3255099e-002
  1.0641331e-002
  8.9115075e-003
  9.0736279e-003
  1.1103353e-002
  1.4212429e-002
  1.7291794e-002
  1.9324598e-002
  1.9650248e-002
  1.8041462e-002
  1.4608516e-002
  9.5953117e-003
  3.1884706e-003
 -4.5278402e-003
 -1.3426340e-002
 -2.3106240e-002
 -3.2773779e-002
 -4.1365446e-002
 -4.7869584e-002
 -5.1655872e-002
 -5.2617771e-002
 -5.1064143e-002
 -4.7459750e-002
 -4.2196253e-002
 -3.5527411e-002
 -2.7668050e-002
 -1.8936974e-002
 -9.8008936e-003
 -7.5155808e-004
  7.9431178e-003
  1.6495094e-002
  2.5714693e-002
  3.6870393e-002
  5.1246183e-002
  6.9486496e-002
  9.0972617e-002
  1.1356088e-001
  1.3393741e-001
  1.4858553e-001
  1.5502836e-001
  1.5279881e-001
  1.4366241e-001
  1.3095977e-001
  1.1835026e-001
  1.0849361e-001
  1.0219139e-001
  9.8283518e-002
  9.4296556e-002
  8.7582857e-002
  7.6521275e-002
  6.1301892e-002
  4.3937657e-002
  2.7454591e-002
  1.4608320e-002
  6.7382167e-003
  3.3099931e-003
  2.3254371e-003
  1.3281954e-003
 -1.5164680e-003
 -6.7387048e-003
 -1.3502728e-002
 -2.0121450e-002
 -2.4899755e-002
 -2.6950560e-002
 -2.6638290e-002
 -2.5455914e-002
 -2.5389852e-002
 -2.8053353e-002
 -3.3959792e-002
 -4.2235189e-002
 -5.0891845e-002
 -5.7581064e-002
 -6.0563276e-002
 -5.9511528e-002
 -5.5757420e-002
 -5.1774126e-002
 -5.0060890e-002
 -5.1960789e-002
 -5.7035646e-002
 -6.3326457e-002
 -6.8329291e-002
 -7.0156850e-002
 -6.8345037e-002
 -6.4025554e-002
 -5.9476620e-002
 -5.7231301e-002
 -5.9009512e-002
 -6.4831261e-002
 -7.2708881e-002
 -7.9157138e-002
 -8.0391600e-002
 -7.3724751e-002
 -5.8574967e-002
 -3.6729038e-002
 -1.1856069e-002
  1.1484164e-002
  2.9053704e-002
  3.8139408e-002
  3.8499898e-002
  3.2704527e-002
  2.5505347e-002
  2.2174219e-002
  2.6273286e-002
  3.7775390e-002
  5.2467198e-002
  6.3081254e-002
  6.1852554e-002
  4.3544974e-002
  7.7329615e-003
 -4.0632337e-002
 -9.2682050e-002
 -1.3859994e-001
 -1.7094281e-001
 -1.8696827e-001
 -1.8902711e-001
 -1.8291324e-001
 -1.7495945e-001
 -1.6918831e-001
 -1.6573043e-001
 -1.6108147e-001
 -1.4992332e-001
 -1.2758585e-001
 -9.2047250e-002
 -4.4691263e-002
  1.0340411e-002
  6.7751010e-002
  1.2286346e-001
  1.7283651e-001
  2.1694869e-001
  2.5602207e-001
  2.9137665e-001
  3.2379567e-001
  3.5287964e-001
  3.7697964e-001
  3.9371667e-001
  4.0093080e-001
  3.9774750e-001
  3.8533117e-001
  3.6691685e-001
  3.4696205e-001
  3.2967829e-001
  3.1755451e-001
  3.1052951e-001
  3.0616425e-001
  3.0069566e-001
  2.9048827e-001
  2.7330091e-001
  2.4893677e-001
  2.1912333e-001
  1.8674594e-001
  1.5475950e-001
  1.2518707e-001
  9.8558700e-002
  7.3951252e-002
  4.9528268e-002
  2.3279739e-002
 -6.3630457e-003
 -4.0217143e-002
 -7.8327133e-002
 -1.2010085e-001
 -1.6446633e-001
 -2.0998648e-001
 -2.5495077e-001
 -2.9751209e-001
 -3.3592761e-001
 -3.6889548e-001
 -3.9588876e-001
 -4.1733348e-001
 -4.3450444e-001
 -4.4911442e-001
 -4.6269924e-001
 -4.7599846e-001
 -4.8856320e-001
 -4.9877420e-001
 -5.0432239e-001
 -5.0301905e-001
 -4.9363479e-001
 -4.7641393e-001
 -4.5302783e-001
 -4.2598084e-001
 -3.9773748e-001
 -3.6996457e-001
 -3.4321072e-001
 -3.1712213e-001
 -2.9103568e-001
 -2.6462748e-001
 -2.3829429e-001
 -2.1309209e-001
 -1.9027753e-001
 -1.7069933e-001
 -1.5437487e-001
 -1.4050366e-001
 -1.2793610e-001
 -1.1585375e-001
 -1.0428466e-001
 -9.4161747e-002
 -8.6877177e-002
 -8.3544707e-002
 -8.4327612e-002
 -8.8165520e-002
 -9.3051447e-002
 -9.6750874e-002
 -9.7647161e-002
 -9.5346105e-002
 -9.0789491e-002
 -8.5843755e-002
 -8.2544613e-002
 -8.2302655e-002
 -8.5366859e-002
 -9.0727233e-002
 -9.6475980e-002
 -1.0049030e-001
 -1.0118615e-001
 -9.8062070e-002
 -9.1835463e-002
 -8.4145249e-002
 -7.6967676e-002
 -7.1976049e-002
 -7.0047591e-002
 -7.1033992e-002
 -7.3835496e-002
 -7.6766906e-002
 -7.8141127e-002
 -7.6903224e-002
 -7.3076566e-002
 -6.7813178e-002
 -6.2995666e-002
 -6.0543861e-002
 -6.1713973e-002
 -6.6663574e-002
 -7.4415696e-002
 -8.3187555e-002
 -9.0940129e-002
 -9.5970452e-002
 -9.7380119e-002
 -9.5294130e-002
 -9.0776157e-002
 -8.5474271e-002
 -8.1102995e-002
 -7.8906658e-002
 -7.9256370e-002
 -8.1508077e-002
 -8.4192672e-002
 -8.5523618e-002
 -8.4092081e-002
 -7.9498833e-002
 -7.2623150e-002
 -6.5334442e-002
 -5.9708514e-002
 -5.7089129e-002
 -5.7455156e-002
 -5.9416331e-002
 -6.0839649e-002
 -5.9797618e-002
 -5.5398992e-002
 -4.8150326e-002
 -3.9718660e-002
 -3.2204886e-002
 -2.7216556e-002
 -2.5109504e-002
 -2.4721871e-002
 -2.3743684e-002
 -1.9599500e-002
 -1.0485717e-002
  3.8730315e-003
  2.2050665e-002
  4.1367765e-002
  5.8759021e-002
  7.1747526e-002
  7.9228424e-002
  8.1842658e-002
  8.1822392e-002
  8.2316793e-002
  8.6365454e-002
  9.5838078e-002
  1.1072899e-001
  1.2911720e-001
  1.4786205e-001
  1.6378150e-001
  1.7482404e-001
  1.8074804e-001
  1.8306455e-001
  1.8433387e-001
  1.8715679e-001
  1.9327573e-001
  2.0310309e-001
  2.1578909e-001
  2.2971896e-001
  2.4317817e-001
  2.5489281e-001
  2.6424260e-001
  2.7112308e-001
  2.7562659e-001
  2.7780022e-001
  2.7764074e-001
  2.7526811e-001
  2.7106337e-001
  2.6559627e-001
  2.5935877e-001
  2.5249479e-001
  2.4473481e-001
  2.3560127e-001
  2.2476109e-001
  2.1230494e-001
  1.9879109e-001
  1.8504825e-001
  1.7186631e-001
  1.5973827e-001
  1.4875785e-001
  1.3868858e-001
  1.2915373e-001
  1.1986770e-001
  1.1083298e-001
  1.0244436e-001
  9.5458872e-002
  9.0806319e-002
  8.9252383e-002
  9.0995120e-002
  9.5355310e-002
  1.0075146e-001
  1.0507419e-001
  1.0639233e-001
  1.0372338e-001
  9.7512590e-002
  8.9561733e-002
  8.2387996e-002
  7.8248742e-002
  7.8216063e-002
  8.1674431e-002
  8.6464696e-002
  8.9656916e-002
  8.8672080e-002
  8.2295737e-002
  7.1144279e-002
  5.7376811e-002
  4.3782743e-002
  3.2651377e-002
  2.4922449e-002
  1.9988375e-002
  1.6214260e-002
  1.1887275e-002
  6.0839616e-003
 -1.0068947e-003
 -8.4534590e-003
 -1.5379785e-002
 -2.1669404e-002
 -2.8106100e-002
 -3.5846231e-002
 -4.5556990e-002
 -5.6776335e-002
 -6.7907963e-002
 -7.6875447e-002
 -8.2088089e-002
 -8.3220298e-002
 -8.1414050e-002
 -7.8794389e-002
 -7.7510465e-002
 -7.8744796e-002
 -8.2161671e-002
 -8.6059955e-002
 -8.8147953e-002
 -8.6553316e-002
 -8.0582421e-002
 -7.0891704e-002
 -5.9035713e-002
 -4.6656204e-002
 -3.4733624e-002
 -2.3270919e-002
 -1.1548719e-002
  1.2086054e-003
  1.5135454e-002
  2.9396989e-002
  4.2435209e-002
  5.2674993e-002
  5.9306847e-002
  6.2703874e-002
  6.4229309e-002
  6.5537041e-002
  6.7752748e-002
  7.0977223e-002
  7.4352920e-002
  7.6608169e-002
  7.6735370e-002
  7.4418470e-002
  7.0018081e-002
  6.4216025e-002
  5.7614806e-002
  5.0560404e-002
  4.3254607e-002
  3.6006070e-002
  2.9382458e-002
  2.4109344e-002
  2.0745580e-002
  1.9327348e-002
  1.9216495e-002
  1.9294459e-002
  1.8464493e-002
  1.6246633e-002
  1.3160735e-002
  1.0660789e-002
  1.0601653e-002
  1.4476007e-002
  2.2797956e-002
  3.4941927e-002
  4.9512013e-002
  6.5050290e-002
  8.0731279e-002
  9.6709663e-002
  1.1397491e-001
  1.3382056e-001
  1.5722014e-001
  1.8441887e-001
  2.1490158e-001
  2.4767861e-001
  2.8167170e-001
  3.1596742e-001
  3.4983167e-001
  3.8255549e-001
  4.1331677e-001
  4.4122976e-001
  4.6563421e-001
  4.8653654e-001
  5.0503790e-001
  5.2359100e-001
  5.4598326e-001
  5.7701709e-001
  6.2193739e-001
  6.8572038e-001
  7.7234684e-001
  8.8412749e-001
  1.0210932e+000
  1.1804929e+000
  1.3565602e+000
  1.5408122e+000
  1.7230736e+000
  1.8931387e+000
  2.0425715e+000
  2.1658664e+000
  2.2602816e+000
  2.3241887e+000
  2.3545332e+000
  2.3445922e+000
  2.2833150e+000
  2.1570216e+000
  1.9532878e+000
  1.6658131e+000
  1.2984243e+000
  8.6646353e-001
  3.9470933e-001
 -8.7653536e-002
 -5.5328604e-001
 -9.8194047e-001
 -1.3629132e+000
 -1.6940682e+000
 -1.9781442e+000
 -2.2180484e+000
 -2.4131087e+000
 -2.5577348e+000
 -2.6428975e+000
 -2.6597110e+000
 -2.6036228e+000
 -2.4775433e+000
 -2.2927105e+000
 -2.0669986e+000
 -1.8213492e+000
 -1.5756332e+000
 -1.3453088e+000
 -1.1397685e+000
 -9.6253369e-001
 -8.1278453e-001
 -6.8736247e-001
 -5.8243723e-001
 -4.9439828e-001
 -4.1999036e-001
 -3.5604548e-001
 -2.9924901e-001
 -2.4623663e-001
 -1.9406297e-001
 -1.4083883e-001
 -8.6201082e-002
 -3.1315069e-002
  2.1693777e-002
  7.0705993e-002
  1.1456572e-001
  1.5355940e-001
  1.8912561e-001
  2.2288774e-001
  2.5548391e-001
  2.8580375e-001
  3.1102969e-001
  3.2745871e-001
  3.3171785e-001
  3.2187501e-001
  2.9808843e-001
  2.6267902e-001
  2.1969131e-001
  1.7409617e-001
  1.3083580e-001
  9.3946347e-002
  6.5971694e-002
  4.7774024e-002
  3.8701502e-002
  3.6981317e-002
  4.0205562e-002
  4.5827485e-002
  5.1619979e-002
  5.6038195e-002
  5.8403918e-002
  5.8850792e-002
  5.8058716e-002
  5.6904340e-002
  5.6177824e-002
  5.6448894e-002
  5.8069723e-002
  6.1237845e-002
  6.6026147e-002
  7.2321449e-002
  7.9696099e-002
  8.7330148e-002
  9.4127595e-002
  9.9075655e-002
  1.0172051e-001
  1.0249890e-001
  1.0268601e-001
  1.0390999e-001
  1.0743511e-001
  1.1356515e-001
  1.2146417e-001
  1.2947080e-001
  1.3574375e-001
  1.3895137e-001
  1.3873673e-001
  1.3580038e-001
  1.3158425e-001
  1.2767677e-001
  1.2516540e-001
  1.2420401e-001
  1.2399771e-001
  1.2322983e-001
  1.2073423e-001
  1.1607786e-001
  1.0976341e-001
  1.0297212e-001
  9.7009802e-002
  9.2745611e-002
  9.0286331e-002
  8.8975991e-002
  8.7665998e-002
  8.5129000e-002
  8.0480675e-002
  7.3493755e-002
  6.4724114e-002
  5.5416102e-002
  4.7200670e-002
  4.1636877e-002
  3.9689362e-002
  4.1292240e-002
  4.5189581e-002
  4.9197500e-002
  5.0877602e-002
  4.8411702e-002
  4.1339859e-002
  3.0846607e-002
  1.9447785e-002
  1.0167831e-002
  5.5024653e-003
  6.5473008e-003
  1.2606154e-002
  2.1410447e-002
  2.9866115e-002
  3.5076584e-002
  3.5310130e-002
  3.0593012e-002
  2.2711908e-002
  1.4590326e-002
  9.2262415e-003
  8.5656292e-003
  1.2747316e-002
  2.0035873e-002
  2.7491408e-002
  3.2119672e-002
  3.2041545e-002
  2.7209961e-002
  1.9384942e-002
  1.1373101e-002
  5.8304299e-003
  4.1080259e-003
  5.6190139e-003
  8.0108449e-003
  8.1025862e-003
  3.2145744e-003
 -7.6755437e-003
 -2.3463346e-002
 -4.1349933e-002
 -5.7983121e-002
 -7.0797691e-002
 -7.8968643e-002
 -8.3576411e-002
 -8.6931504e-002
 -9.1364779e-002
 -9.8009850e-002
 -1.0609255e-001
 -1.1300653e-001
 -1.1511110e-001
 -1.0890024e-001
 -9.2078156e-002
 -6.4163473e-002
 -2.6474707e-002
  1.8391488e-002
  6.7312260e-002
  1.1733509e-001
  1.6615095e-001
  2.1232174e-001
  2.5531752e-001
  2.9540488e-001
  3.3337550e-001
  3.7009818e-001
  4.0595081e-001
  4.4030035e-001
  4.7126502e-001
  4.9595071e-001
  5.1119533e-001
  5.1463419e-001
  5.0570817e-001
  4.8617602e-001
  4.5982912e-001
  4.3141789e-001
  4.0515781e-001
  3.8340717e-001
  3.6606607e-001
  3.5093863e-001
  3.3487705e-001
  3.1520088e-001
  2.9081151e-001
  2.6260342e-001
  2.3308446e-001
  2.0540245e-001
  1.8214935e-001
  1.6436394e-001
  1.5108627e-001
  1.3963721e-001
  1.2653391e-001
  1.0870224e-001
  8.4527402e-002
  5.4354777e-002
  2.0277848e-002
 -1.4676203e-002
 -4.7639114e-002
 -7.6865488e-002
 -1.0222562e-001
 -1.2506491e-001
 -1.4750100e-001
 -1.7144022e-001
 -1.9770657e-001
 -2.2563387e-001
 -2.5327518e-001
 -2.7811127e-001
 -2.9792411e-001
 -3.1144950e-001
 -3.1855809e-001
 -3.1996333e-001
 -3.1668463e-001
 -3.0958095e-001
 -2.9917524e-001
 -2.8578569e-001
 -2.6979659e-001
 -2.5183966e-001
 -2.3273449e-001
 -2.1319979e-001
 -1.9350833e-001
 -1.7332566e-001
 -1.5189553e-001
 -1.2854089e-001
 -1.0324631e-001
 -7.7002376e-002
 -5.1688809e-002
 -2.9504423e-002
 -1.2188176e-002
 -3.8478695e-004
  6.5624178e-003
  1.0310711e-002
  1.2851514e-002
  1.5762117e-002
  1.9671510e-002
  2.4132560e-002
  2.7925831e-002
  2.9654379e-002
  2.8379993e-002
  2.4037910e-002
  1.7459461e-002
  1.0001333e-002
  2.9574478e-003
 -2.9683689e-003
 -7.8813808e-003
 -1.2518727e-002
 -1.7798505e-002
 -2.4357750e-002
 -3.2323304e-002
 -4.1396366e-002
 -5.1139559e-002
 -6.1264754e-002
 -7.1771040e-002
 -8.2903603e-002
 -9.4995568e-002
 -1.0828024e-001
 -1.2275182e-001
 -1.3813865e-001
 -1.5402344e-001
 -1.7007830e-001
 -1.8629845e-001
 -2.0307789e-001
 -2.2102509e-001
 -2.4055831e-001
 -2.6147463e-001
 -2.8275217e-001
 -3.0276263e-001
 -3.1986215e-001
 -3.3310353e-001
 -3.4270886e-001
 -3.5003671e-001
 -3.5702761e-001
 -3.6536842e-001
 -3.7573854e-001
 -3.8744882e-001
 -3.9861934e-001
 -4.0684949e-001
 -4.1016162e-001
 -4.0787403e-001
 -4.0102465e-001
 -3.9208676e-001
 -3.8400485e-001
 -3.7893335e-001
 -3.7727979e-001
 -3.7756264e-001
 -3.7719058e-001
 -3.7377307e-001
 -3.6628287e-001
 -3.5548421e-001
 -3.4345075e-001
 -3.3247683e-001
 -3.2396793e-001
 -3.1785194e-001
 -3.1274694e-001
 -3.0674352e-001
 -2.9839606e-001
 -2.8745710e-001
 -2.7502445e-001
 -2.6303717e-001
 -2.5335475e-001
 -2.4685446e-001
 -2.4297776e-001
 -2.3993537e-001
 -2.3545912e-001
 -2.2773877e-001
 -2.1612398e-001
 -2.0130972e-001
 -1.8497152e-001
 -1.6905423e-001
 -1.5504506e-001
 -1.4352935e-001
 -1.3416155e-001
 -1.2597245e-001
 -1.1779614e-001
 -1.0860802e-001
 -9.7694769e-002
 -8.4716796e-002
 -6.9766520e-002
 -5.3446365e-002
 -3.6870441e-002
 -2.1456504e-002
 -8.4848284e-003
  1.4087957e-003
  8.5259959e-003
  1.3986138e-002
  1.9232288e-002
  2.5421734e-002
  3.3006244e-002
  4.1667037e-002
  5.0567021e-002
  5.8751894e-002
  6.5515286e-002
  7.0601453e-002
  7.4198643e-002
  7.6753896e-002
  7.8709932e-002
  8.0305226e-002
  8.1549702e-002
  8.2379071e-002
  8.2860656e-002
  8.3277753e-002
  8.4012794e-002
  8.5316290e-002
  8.7150116e-002
  8.9242920e-002
  9.1332365e-002
  9.3420660e-002
  9.5846923e-002
  9.9098969e-002
  1.0346610e-001
  1.0875145e-001
  1.1423880e-001
  1.1895901e-001
  1.2212138e-001
  1.2347725e-001
  1.2342143e-001
  1.2278098e-001
  1.2240205e-001
  1.2274247e-001
  1.2366733e-001
  1.2453806e-001
  1.2453998e-001
  1.2308147e-001
  1.2007300e-001
  1.1596336e-001
  1.1153571e-001
  1.0758405e-001
  1.0463551e-001
  1.0283615e-001
  1.0201424e-001
  1.0184641e-001
  1.0202771e-001
  1.0238152e-001
  1.0289707e-001
  1.0370763e-001
  1.0501473e-001
  1.0695480e-001
  1.0943156e-001
  1.1198947e-001
  1.1382642e-001
  1.1399926e-001
  1.1177822e-001
  1.0701057e-001
  1.0031140e-001
  9.2944322e-002
  8.6385825e-002
  8.1730920e-002
  7.9202613e-002
  7.8007540e-002
  7.6634779e-002
  7.3491342e-002
  6.7600890e-002
  5.9047662e-002
  4.8960265e-002
  3.9051585e-002
  3.0944413e-002
  2.5600074e-002
  2.3086653e-002
  2.2732747e-002
  2.3527185e-002
  2.4540211e-002
  2.5182031e-002
  2.5235982e-002
  2.4729394e-002
  2.3769456e-002
  2.2450461e-002
  2.0860430e-002
  1.9139202e-002
  1.7515796e-002
  1.6283860e-002
  1.5723131e-002
  1.6002971e-002
  1.7102822e-002
  1.8773009e-002
  2.0553398e-002
  2.1860227e-002
  2.2130093e-002
  2.0981664e-002
  1.8342781e-002
  1.4502316e-002
  1.0069506e-002
  5.8444680e-003
  2.6213254e-003
  9.6405548e-004
  1.0117874e-003
  2.3770113e-003
  4.1909038e-003
  5.3205836e-003
  4.7298948e-003
  1.8842921e-003
 -2.9596635e-003
 -8.7419012e-003
 -1.3935887e-002
 -1.7144917e-002
 -1.7711520e-002
 -1.6043426e-002
 -1.3464335e-002
 -1.1618960e-002
 -1.1688821e-002
 -1.3785539e-002
 -1.6819542e-002
 -1.8929367e-002
 -1.8305477e-002
 -1.4059757e-002
 -6.7451774e-003
  1.7523111e-003
  8.9622411e-003
  1.2912577e-002
  1.3039485e-002
  1.0473228e-002
  7.5535383e-003
  6.8037914e-003
  9.8328618e-003
  1.6635591e-002
  2.5564093e-002
  3.3955147e-002
  3.9144251e-002
  3.9465351e-002
  3.4864037e-002
  2.6913542e-002
  1.8244831e-002
  1.1606025e-002
  8.8919527e-003
  1.0494554e-002
  1.5210186e-002
  2.0733144e-002
  2.4542705e-002
  2.4845501e-002
  2.1224619e-002
  1.4767310e-002
  7.6387148e-003
  2.2663508e-003
  4.3594640e-004
  2.6323777e-003
  7.8762022e-003
  1.4126333e-002
  1.9098213e-002
  2.1170004e-002
  2.0004670e-002
  1.6639186e-002
  1.3026343e-002
  1.1237260e-002
  1.2643249e-002
  1.7375290e-002
  2.4249172e-002
  3.1187396e-002
  3.5995436e-002
  3.7205946e-002
  3.4656616e-002
  2.9559801e-002
  2.4030825e-002
  2.0274640e-002
  1.9771549e-002
  2.2780064e-002
  2.8310076e-002
  3.4516580e-002
  3.9330905e-002
  4.1116381e-002
  3.9170647e-002
  3.3951916e-002
  2.6967609e-002
  2.0337706e-002
  1.6136126e-002
  1.5705415e-002
  1.9187112e-002
  2.5460148e-002
  3.2531002e-002
  3.8240216e-002
  4.1025098e-002
  4.0451314e-002
  3.7301104e-002
  3.3172600e-002
  2.9757453e-002
  2.8120480e-002
  2.8306126e-002
  2.9436618e-002
  3.0236859e-002
  2.9729228e-002
  2.7761507e-002
  2.5099016e-002
  2.3014255e-002
  2.2562660e-002
  2.3915216e-002
  2.6120317e-002
  2.7466172e-002
  2.6301506e-002
  2.1914831e-002
  1.5022934e-002
  7.6112974e-003
  2.1922969e-003
  8.1857755e-004
  4.2722883e-003
  1.1735215e-002
  2.1032885e-002
  2.9353504e-002
  3.4210697e-002
  3.4334097e-002
  3.0153718e-002
  2.3653700e-002
  1.7616135e-002
  1.4550449e-002
  1.5752820e-002
  2.0875404e-002
  2.8144923e-002
  3.5087541e-002
  3.9435082e-002
  3.9873848e-002
  3.6412354e-002
  3.0297232e-002
  2.3538729e-002
  1.8212399e-002
  1.5775116e-002
  1.6633967e-002
  2.0111052e-002
  2.4790686e-002
  2.9095490e-002
  3.1873449e-002
  3.2797261e-002
  3.2451892e-002
  3.2085645e-002
  3.3105348e-002
  3.6488236e-002
  4.2330047e-002
  4.9718283e-002
  5.7004861e-002
  6.2390658e-002
  6.4595693e-002
  6.3343185e-002
  5.9463670e-002
  5.4590316e-002
  5.0581548e-002
  4.8893325e-002
  5.0112664e-002
  5.3792937e-002
  5.8639090e-002
  6.2986974e-002
  6.5411658e-002
  6.5228563e-002
  6.2680475e-002
  5.8745734e-002
  5.4685203e-002
  5.1556233e-002
  4.9898747e-002
  4.9676424e-002
  5.0428000e-002
  5.1519131e-002
  5.2383835e-002
  5.2666800e-002
  5.2208410e-002
  5.0877540e-002
  4.8360590e-002
  4.4095387e-002
  3.7497324e-002
  2.8436093e-002
  1.7694102e-002
  7.0540617e-003
 -1.1747252e-003
 -5.0531842e-003
 -3.9099791e-003
  1.2340988e-003
  7.9678759e-003
  1.3405685e-002
  1.5306305e-002
  1.2909062e-002
  7.1620261e-003
  2.9364414e-004
 -5.0729732e-003
 -6.9204332e-003
 -4.5814022e-003
  1.0553896e-003
  7.9566130e-003
  1.3790404e-002
  1.6828216e-002
  1.6511313e-002
  1.3474655e-002
  9.0917921e-003
  4.8079744e-003
  1.5682311e-003
 -4.6301398e-004
 -1.8559992e-003
 -3.6232045e-003
 -6.7979680e-003
 -1.2000320e-002
 -1.9111346e-002
 -2.7185119e-002
 -3.4687569e-002
 -4.0031911e-002
 -4.2223351e-002
 -4.1332553e-002
 -3.8563287e-002
 -3.5850483e-002
 -3.5132753e-002
 -3.7592228e-002
 -4.3184663e-002
 -5.0677531e-002
 -5.8202265e-002
 -6.4091087e-002
 -6.7623056e-002
 -6.9336121e-002
 -7.0772467e-002
 -7.3805813e-002
 -7.9889493e-002
 -8.9553945e-002
 -1.0229745e-001
 -1.1679443e-001
 -1.3123197e-001
 -1.4361458e-001
 -1.5198190e-001
 -1.5456776e-001
 -1.4994955e-001
 -1.3721102e-001
 -1.1610682e-001
 -8.7182365e-002
 -5.1765291e-002
 -1.1737283e-002
  3.0927423e-002
  7.4714625e-002
  1.1894927e-001
  1.6377431e-001
  2.0970480e-001
  2.5696486e-001
  3.0492280e-001
  3.5187203e-001
  3.9523168e-001
  4.3206971e-001
  4.5975385e-001
  4.7652359e-001
  4.8183202e-001
  4.7640225e-001
  4.6203317e-001
  4.4122849e-001
  4.1670874e-001
  3.9085776e-001
  3.6520530e-001
  3.4012880e-001
  3.1496528e-001
  2.8857948e-001
  2.6018043e-001
  2.2998059e-001
  1.9932054e-001
  1.7015921e-001
  1.4418655e-001
  1.2201857e-001
  1.0286743e-001
  8.4817575e-002
  6.5556006e-002
  4.3236907e-002
  1.7137430e-002
 -1.2146861e-002
 -4.3048595e-002
 -7.3787954e-002
 -1.0322696e-001
 -1.3142488e-001
 -1.5960680e-001
 -1.8952449e-001
 -2.2249070e-001
 -2.5853862e-001
 -2.9610784e-001
 -3.3241679e-001
 -3.6437675e-001
 -3.8966795e-001
 -4.0752688e-001
 -4.1890633e-001
 -4.2592937e-001
 -4.3086688e-001
 -4.3509087e-001
 -4.3847523e-001
 -4.3950623e-001
 -4.3602667e-001
 -4.2625135e-001
 -4.0960444e-001
 -3.8705573e-001
 -3.6087018e-001
 -3.3390338e-001
 -3.0870971e-001
 -2.8677311e-001
 -2.6813046e-001
 -2.5153484e-001
 -2.3511207e-001
 -2.1725458e-001
 -1.9737135e-001
 -1.7615877e-001
 -1.5528251e-001
 -1.3665069e-001
 -1.2164352e-001
 -1.1064327e-001
 -1.0302447e-001
 -9.7548248e-002
 -9.2953411e-002
 -8.8479233e-002
 -8.4086877e-002
 -8.0270704e-002
 -7.7551214e-002
 -7.5938931e-002
 -7.4723684e-002
 -7.2786786e-002
 -6.9308506e-002
 -6.4450842e-002
 -5.9551068e-002
 -5.6624384e-002
 -5.7388168e-002
 -6.2319579e-002
 -7.0254938e-002
 -7.8749743e-002
 -8.5032440e-002
 -8.7117221e-002
 -8.4596329e-002
 -7.8789250e-002
 -7.2198773e-002
 -6.7507595e-002
 -6.6534784e-002
 -6.9577810e-002
 -7.5388370e-002
 -8.1751485e-002
 -8.6385876e-002
 -8.7773279e-002
 -8.5599347e-002
 -8.0696961e-002
 -7.4604021e-002
 -6.8973236e-002
 -6.5067705e-002
 -6.3482403e-002
 -6.4113658e-002
 -6.6311262e-002
 -6.9119218e-002
 -7.1533128e-002
 -7.2737909e-002
 -7.2302789e-002
 -7.0295475e-002
 -6.7261289e-002
 -6.4032471e-002
 -6.1400670e-002
 -5.9771078e-002
 -5.8957443e-002
 -5.8226816e-002
 -5.6580911e-002
 -5.3147878e-002
 -4.7523939e-002
 -3.9946451e-002
 -3.1247692e-002
 -2.2600245e-002
 -1.5124417e-002
 -9.4856423e-003
 -5.6363007e-003
 -2.8185397e-003
  1.5686872e-004
  4.4608829e-003
  1.0803889e-002
  1.9162645e-002
  2.8751372e-002
  3.8218196e-002
  4.5999224e-002
  5.0755096e-002
  5.1808506e-002
  4.9471804e-002
  4.5127357e-002
  4.0956734e-002
  3.9335388e-002
  4.2071582e-002
  4.9774350e-002
  6.1612871e-002
  7.5584898e-002
  8.9212948e-002
  1.0041461e-001
  1.0821579e-001
  1.1303260e-001
  1.1642339e-001
  1.2042808e-001
  1.2676685e-001
  1.3619889e-001
  1.4824864e-001
  1.6135505e-001
  1.7336035e-001
  1.8216273e-001
  1.8631274e-001
  1.8534461e-001
  1.7972584e-001
  1.7047382e-001
  1.5865317e-001
  1.4502413e-001
  1.3000705e-001
  1.1391930e-001
  9.7264890e-002
  8.0835396e-002
  6.5528000e-002
  5.1995589e-002
  4.0368378e-002
  3.0247998e-002
  2.1011315e-002
  1.2279275e-002
  4.3022530e-003
 -1.9680465e-003
 -5.2138776e-003
 -4.3824863e-003
  6.8007585e-004
  8.9335331e-003
  1.8387327e-002
  2.6814848e-002
  3.2618420e-002
  3.5434055e-002
  3.6175756e-002
  3.6475251e-002
  3.7763631e-002
  4.0436834e-002
  4.3535706e-002
  4.5128139e-002
  4.3217380e-002
  3.6719734e-002
  2.6021419e-002
  1.2856801e-002
 -3.8962070e-004
 -1.1577127e-002
 -1.9475542e-002
 -2.3971483e-002
 -2.5854113e-002
 -2.6399992e-002
 -2.6982895e-002
 -2.8816857e-002
 -3.2810059e-002
 -3.9448882e-002
 -4.8663091e-002
 -5.9703928e-002
 -7.1134295e-002
 -8.1037629e-002
 -8.7485204e-002
 -8.9178781e-002
 -8.6057464e-002
 -7.9594598e-002
 -7.2564197e-002
 -6.8229029e-002
 -6.9149299e-002
 -7.6042869e-002
 -8.7217889e-002
 -9.8938012e-002
 -1.0668522e-001
 -1.0684044e-001
 -9.8064079e-002
 -8.1782133e-002
 -6.1608616e-002
 -4.2019130e-002
 -2.6864538e-002
 -1.8266177e-002
 -1.6175665e-002
 -1.8616488e-002
 -2.2457403e-002
 -2.4469526e-002
 -2.2347609e-002
 -1.5368604e-002
 -4.4762502e-003
  8.2002436e-003
  2.0165921e-002
  2.9379660e-002
  3.4777419e-002
  3.6365201e-002
  3.4943625e-002
  3.1663828e-002
  2.7642716e-002
  2.3783925e-002
  2.0801301e-002
  1.9302335e-002
  1.9753499e-002
  2.2259941e-002
  2.6278552e-002
  3.0500431e-002
  3.3086867e-002
  3.2252723e-002
  2.6987449e-002
  1.7604749e-002
  5.8572671e-003
 -5.4939847e-003
 -1.3567248e-002
 -1.6420933e-002
 -1.3862463e-002
 -7.5847637e-003
 -4.4898010e-004
  4.8450334e-003
  7.0858014e-003
  7.2015912e-003
  7.8907757e-003
  1.2414397e-002
  2.3157862e-002
  4.0662928e-002
  6.3567548e-002
  8.9429242e-002
  1.1598842e-001
  1.4224218e-001
  1.6881088e-001
  1.9742694e-001
  2.2979933e-001
  2.6641473e-001
  3.0587692e-001
  3.4513700e-001
  3.8054901e-001
  4.0930661e-001
  4.3066379e-001
  4.4647829e-001
  4.6094468e-001
  4.7971801e-001
  5.0881273e-001
  5.5364875e-001
  6.1845592e-001
  7.0602610e-001
  8.1762073e-001
  9.5279667e-001
  1.1090425e+000
  1.2813630e+000
  1.4621703e+000
  1.6418704e+000
  1.8102703e+000
  1.9584436e+000
  2.0802565e+000
  2.1726934e+000
  2.2345649e+000
  2.2639573e+000
  2.2555271e+000
  2.1990812e+000
  2.0805963e+000
  1.8859199e+000
  1.6061701e+000
  1.2428342e+000
  8.1031483e-001
  3.3444492e-001
 -1.5291325e-001
 -6.2134367e-001
 -1.0485986e+000
 -1.4240270e+000
 -1.7476017e+000
 -2.0252945e+000
 -2.2629582e+000
 -2.4613045e+000
 -2.6139382e+000
 -2.7090937e+000
 -2.7342432e+000
 -2.6816660e+000
 -2.5527603e+000
 -2.3594440e+000
 -2.1221887e+000
 -1.8655208e+000
 -1.6126681e+000
 -1.3811305e+000
 -1.1803838e+000
 -1.0120350e+000
 -8.7192120e-001
 -7.5314727e-001
 -6.4898592e-001
 -5.5483744e-001
 -4.6890258e-001
 -3.9167037e-001
 -3.2464032e-001
 -2.6884488e-001
 -2.2372583e-001
 -1.8676500e-001
 -1.5399021e-001
 -1.2113062e-001
 -8.4914689e-002
 -4.3948881e-002
  1.1501317e-003
  4.8290625e-002
  9.4704854e-002
  1.3757546e-001
  1.7430377e-001
  2.0255111e-001
  2.2032289e-001
  2.2625231e-001
  2.2000578e-001
  2.0257620e-001
  1.7625940e-001
  1.4427236e-001
  1.1013710e-001
  7.7028554e-002
  4.7269141e-002
  2.2097415e-002
  1.7676316e-003
 -1.4064480e-002
 -2.5838683e-002
 -3.3713925e-002
 -3.7508298e-002
 -3.6968559e-002
 -3.2195773e-002
 -2.3979438e-002
 -1.3861415e-002
 -3.8911415e-003
  3.8487265e-003
  7.8071427e-003
  7.4537747e-003
  3.5127148e-003
 -2.2047171e-003
 -7.3842592e-003
 -1.0028249e-002
 -9.1821465e-003
 -5.2616834e-003
  1.3930700e-004
  4.8553575e-003
  6.9295371e-003
  5.3073849e-003
  2.3001749e-004
 -6.8140012e-003
 -1.3599956e-002
 -1.7991174e-002
 -1.8762291e-002
 -1.6066479e-002
 -1.1335237e-002
 -6.6630495e-003
 -3.9609823e-003
 -4.2379809e-003
 -7.2685283e-003
 -1.1712941e-002
 -1.5587271e-002
 -1.6899380e-002
 -1.4261120e-002
 -7.3070574e-003
  3.2108462e-003
  1.5696752e-002
  2.8261535e-002
  3.9337509e-002
  4.8115119e-002
  5.4646281e-002
  5.9613505e-002
  6.3905811e-002
  6.8204542e-002
  7.2742670e-002
  7.7298516e-002
  8.1386842e-002
  8.4551537e-002
  8.6634311e-002
  8.7891228e-002
  8.8882625e-002
  9.0177741e-002
  9.2028771e-002
  9.4192456e-002
  9.5990329e-002
  9.6570684e-002
  9.5252436e-002
  9.1821855e-002
  8.6688315e-002
  8.0847076e-002
  7.5636329e-002
  7.2326843e-002
  7.1651032e-002
  7.3435124e-002
  7.6495812e-002
  7.8881154e-002
  7.8407217e-002
  7.3330908e-002
  6.2951139e-002
  4.7946343e-002
  3.0316357e-002
  1.2897477e-002
 -1.4383514e-003
 -1.0647322e-002
 -1.4127253e-002
 -1.2842902e-002
 -8.9139340e-003
 -4.8334223e-003
 -2.6299857e-003
 -3.2904876e-003
 -6.6214225e-003
 -1.1522011e-002
 -1.6481129e-002
 -2.0067358e-002
 -2.1253813e-002
 -1.9544184e-002
 -1.4965944e-002
 -8.0190897e-003
  3.8326712e-004
  9.0137935e-003
  1.6515934e-002
  2.1670512e-002
  2.3672682e-002
  2.2325211e-002
  1.8089159e-002
  1.1992021e-002
  5.4320398e-003
 -8.2010884e-005
 -3.2326771e-003
 -3.2104868e-003
  1.9337842e-005
  5.6077407e-003
  1.1974952e-002
  1.7252232e-002
  1.9904956e-002
  1.9307450e-002
  1.6010654e-002
  1.1551836e-002
  7.8625701e-003
  6.5216132e-003
  8.1607257e-003
  1.2240447e-002
  1.7243297e-002
  2.1181502e-002
  2.2233443e-002
  1.9301040e-002
  1.2304558e-002
  2.1089657e-003
 -9.8905524e-003
 -2.2347315e-002
 -3.4443073e-002
 -4.6046213e-002
 -5.7486239e-002
 -6.9074742e-002
 -8.0612569e-002
 -9.1103838e-002
 -9.8794503e-002
 -1.0153201e-001
 -9.7328618e-002
 -8.4915960e-002
 -6.4050525e-002
 -3.5427803e-002
 -2.7018170e-004
  4.0154409e-002
  8.4793502e-002
  1.3272544e-001
  1.8285681e-001
  2.3369636e-001
  2.8346298e-001
  3.3056548e-001
  3.7422268e-001
  4.1482924e-001
  4.5371551e-001
  4.9221792e-001
  5.3038284e-001
  5.6596991e-001
  5.9445521e-001
  6.1034374e-001
  6.0942361e-001
  5.9099355e-001
  5.5894344e-001
  5.2100043e-001
  4.8627536e-001
  4.6203901e-001
  4.5103555e-001
  4.5044266e-001
  4.5293330e-001
  4.4946789e-001
  4.3275940e-001
  4.0006474e-001
  3.5420320e-001
  3.0242206e-001
  2.5361473e-001
  2.1503572e-001
  1.8978006e-001
  1.7590977e-001
  1.6743734e-001
  1.5668596e-001
  1.3707785e-001
  1.0530993e-001
  6.2180865e-002
  1.1899736e-002
 -3.9706770e-002
 -8.7299185e-002
 -1.2762882e-001
 -1.6013385e-001
 -1.8649315e-001
 -2.0950633e-001
 -2.3183761e-001
 -2.5508121e-001
 -2.7937822e-001
 -3.0356955e-001
 -3.2570928e-001
 -3.4371865e-001
 -3.5599457e-001
 -3.6183214e-001
 -3.6156097e-001
 -3.5636316e-001
 -3.4784847e-001
 -3.3755316e-001
 -3.2654152e-001
 -3.1522544e-001
 -3.0343522e-001
 -2.9070495e-001
 -2.7667221e-001
 -2.6143780e-001
 -2.4572533e-001
 -2.3075834e-001
 -2.1791180e-001
 -2.0831309e-001
 -2.0258300e-001
 -2.0080670e-001
 -2.0268005e-001
 -2.0769148e-001
 -2.1522691e-001
 -2.2458470e-001
 -2.3497318e-001
 -2.4557447e-001
 -2.5570343e-001
 -2.6501759e-001
 -2.7368357e-001
 -2.8239687e-001
 -2.9218750e-001
 -3.0402571e-001
 -3.1834734e-001
 -3.3469499e-001
 -3.5166369e-001
 -3.6723665e-001
 -3.7943457e-001
 -3.8704920e-001
 -3.9016060e-001
 -3.9019920e-001
 -3.8949197e-001
 -3.9043849e-001
 -3.9460161e-001
 -4.0203042e-001
 -4.1107596e-001
 -4.1882861e-001
 -4.2211131e-001
 -4.1872949e-001
 -4.0849184e-001
 -3.9349991e-001
 -3.7745028e-001
 -3.6415089e-001
 -3.5589226e-001
 -3.5244876e-001
 -3.5120004e-001
 -3.4832028e-001
 -3.4049239e-001
 -3.2639593e-001
 -3.0734481e-001
 -2.8682414e-001
 -2.6913069e-001
 -2.5768030e-001
 -2.5366938e-001
 -2.5562430e-001
 -2.6000608e-001
 -2.6260960e-001
 -2.6018372e-001
 -2.5162864e-001
 -2.3831831e-001
 -2.2345513e-001
 -2.1074264e-001
 -2.0291942e-001
 -2.0074069e-001
 -2.0279709e-001
 -2.0619677e-001
 -2.0777347e-001
 -2.0529313e-001
 -1.9818612e-001
 -1.8757309e-001
 -1.7565315e-001
 -1.6476128e-001
 -1.5649499e-001
 -1.5123465e-001
 -1.4818313e-001
 -1.4583059e-001
 -1.4260969e-001
 -1.3748166e-001
 -1.3025832e-001
 -1.2157727e-001
 -1.1257318e-001
 -1.0439130e-001
 -9.7735292e-002
 -9.2615368e-002
 -8.8379350e-002
 -8.4001577e-002
 -7.8507929e-002
 -7.1363344e-002
 -6.2667713e-002
 -5.3096610e-002
 -4.3639421e-002
 -3.5261143e-002
 -2.8611075e-002
 -2.3849616e-002
 -2.0617650e-002
 -1.8153518e-002
 -1.5543785e-002
 -1.2044902e-002
 -7.3527257e-003
 -1.6915397e-003
  4.3180787e-003
  9.9256641e-003
  1.4502149e-002
  1.7678163e-002
  1.9378689e-002
  1.9823863e-002
  1.9534665e-002
  1.9306369e-002
  2.0076472e-002
  2.2662054e-002
  2.7445433e-002
  3.4167436e-002
  4.1971039e-002
  4.9715167e-002
  5.6423130e-002
  6.1650986e-002
  6.5611693e-002
  6.9026084e-002
  7.2795705e-002
  7.7642915e-002
  8.3845757e-002
  9.1147942e-002
  9.8871357e-002
  1.0619540e-001
  1.1249388e-001
  1.1757157e-001
  1.2167308e-001
  1.2525736e-001
  1.2867130e-001
  1.3191141e-001
  1.3459442e-001
  1.3612876e-001
  1.3598390e-001
  1.3393782e-001
  1.3021901e-001
  1.2550556e-001
  1.2077568e-001
  1.1703337e-001
  1.1497721e-001
  1.1472819e-001
  1.1574383e-001
  1.1698891e-001
  1.1732375e-001
  1.1596553e-001
  1.1283462e-001
  1.0863988e-001
  1.0466591e-001
  1.0234562e-001
  1.0277277e-001
  1.0631252e-001
  1.1242718e-001
  1.1977980e-001
  1.2660731e-001
  1.3126106e-001
  1.3272842e-001
  1.3093426e-001
  1.2670206e-001
  1.2139232e-001
  1.1636250e-001
  1.1246070e-001
  1.0975512e-001
  1.0761161e-001
  1.0508848e-001
  1.0147641e-001
  9.6733511e-002
  9.1589804e-002
  8.7230582e-002
  8.4676874e-002
  8.4170009e-002
  8.4915111e-002
  8.5384688e-002
  8.4087033e-002
  8.0422946e-002
  7.5156066e-002
  7.0184260e-002
  6.7655140e-002
  6.8832515e-002
  7.3287076e-002
  7.8852294e-002
  8.2422220e-002
  8.1259003e-002
  7.4222641e-002
  6.2351280e-002
  4.8501425e-002
  3.6181063e-002
  2.8085185e-002
  2.4993657e-002
  2.5530647e-002
  2.6880509e-002
  2.6107691e-002
  2.1462656e-002
  1.3094180e-002
  2.8923926e-003
 -6.4056403e-003
 -1.2399969e-002
 -1.3965697e-002
 -1.1572560e-002
 -6.9318549e-003
 -2.2209180e-003
  7.2402413e-004
  9.2730164e-004
 -1.6064717e-003
 -6.0797081e-003
 -1.1210094e-002
 -1.5518292e-002
 -1.7576715e-002
 -1.6289756e-002
 -1.1242200e-002
 -3.0159552e-003
  6.7382079e-003
  1.5650458e-002
  2.1382969e-002
  2.2526413e-002
  1.9262834e-002
  1.3476387e-002
  8.2040388e-003
  6.5849656e-003
  1.0683709e-002
  2.0640016e-002
  3.4496490e-002
  4.8803268e-002
  5.9793355e-002
  6.4687880e-002
  6.2630095e-002
  5.4895070e-002
  4.4318472e-002
  3.4197195e-002
  2.7099680e-002
  2.4022827e-002
  2.4175032e-002
  2.5427985e-002
  2.5241309e-002
  2.1693111e-002
  1.4206332e-002
  3.6805973e-003
 -8.0022521e-003
 -1.8838729e-002
 -2.7499159e-002
 -3.3683931e-002
 -3.7922172e-002
 -4.0993667e-002
 -4.3327426e-002
 -4.4701035e-002
 -4.4377452e-002
 -4.1582087e-002
 -3.6054967e-002
 -2.8379616e-002
 -1.9900586e-002
 -1.2244121e-002
 -6.6570990e-003
 -3.4793682e-003
 -2.0090698e-003
 -8.3491819e-004
  1.5119001e-003
  5.8816399e-003
  1.2109792e-002
  1.9075054e-002
  2.5178979e-002
  2.9024392e-002
  2.9981224e-002
  2.8385907e-002
  2.5305731e-002
  2.2023198e-002
  1.9525774e-002
  1.8238221e-002
  1.8050852e-002
  1.8522694e-002
  1.9092826e-002
  1.9212958e-002
  1.8421330e-002
  1.6421718e-002
  1.3193323e-002
  9.0831749e-003
  4.7909116e-003
  1.1906063e-003
 -9.7220218e-004
 -1.3855099e-003
 -3.3316465e-004
  1.3836217e-003
  2.7667189e-003
  3.0653385e-003
  2.1396702e-003
  5.5262748e-004
 -6.7340934e-004
 -5.2252910e-004
  1.5543423e-003
  5.4027641e-003
  1.0247694e-002
  1.5028656e-002
  1.8799012e-002
  2.0986648e-002
  2.1416448e-002
  2.0151298e-002
  1.7311586e-002
  1.3017130e-002
  7.4834004e-003
  1.1797693e-003
 -5.0986024e-003
 -1.0349998e-002
 -1.3664208e-002
 -1.4568158e-002
 -1.3243698e-002
 -1.0499806e-002
 -7.4980240e-003
 -5.3340220e-003
 -4.6292351e-003
 -5.2837728e-003
 -6.4924215e-003
 -7.0316273e-003
 -5.7122754e-003
 -1.8186867e-003
  4.6353036e-003
  1.2913452e-002
  2.1787650e-002
  2.9860802e-002
  3.5843803e-002
  3.8737991e-002
  3.7983996e-002
  3.3646822e-002
  2.6587267e-002
  1.8447611e-002
  1.1310309e-002
  7.0798218e-003
  6.8354862e-003
  1.0448831e-002
  1.6631871e-002
  2.3390667e-002
  2.8717931e-002
  3.1303705e-002
  3.1036678e-002
  2.9089852e-002
  2.7479908e-002
  2.8204846e-002
  3.2322921e-002
  3.9441947e-002
  4.7900932e-002
  5.5535671e-002
  6.0603172e-002
  6.2413340e-002
  6.1445179e-002
  5.8994508e-002
  5.6548330e-002
  5.5115956e-002
  5.4753960e-002
  5.4510525e-002
  5.2901318e-002
  4.8773327e-002
  4.2138017e-002
  3.4483792e-002
  2.8321078e-002
  2.6135062e-002
  2.9244377e-002
  3.7107313e-002
  4.7404115e-002
  5.6889866e-002
  6.2683438e-002
  6.3442003e-002
  5.9877854e-002
  5.4352461e-002
  4.9727485e-002
  4.8029075e-002
  4.9568515e-002
  5.2905485e-002
  5.5598679e-002
  5.5324977e-002
  5.0843182e-002
  4.2423347e-002
  3.1623522e-002
  2.0551148e-002
  1.0942528e-002
  3.4838640e-003
 -2.2922321e-003
 -7.4863168e-003
 -1.2989769e-002
 -1.8817002e-002
 -2.4006071e-002
 -2.7136534e-002
 -2.7144062e-002
 -2.3952122e-002
 -1.8583101e-002
 -1.2739662e-002
 -8.1327696e-003
 -5.9086217e-003
 -6.3965425e-003
 -9.1951138e-003
 -1.3469323e-002
 -1.8298488e-002
 -2.2958224e-002
 -2.7074490e-002
 -3.0623407e-002
 -3.3787743e-002
 -3.6738752e-002
 -3.9458725e-002
 -4.1701695e-002
 -4.3105580e-002
 -4.3380956e-002
 -4.2471570e-002
 -4.0614545e-002
 -3.8284687e-002
 -3.6049579e-002
 -3.4381529e-002
 -3.3483879e-002
 -3.3204381e-002
 -3.3109413e-002
 -3.2741386e-002
 -3.1975229e-002
 -3.1297096e-002
 -3.1837727e-002
 -3.5114719e-002
 -4.2583917e-002
 -5.5170449e-002
 -7.2923557e-002
 -9.4869151e-002
 -1.1907552e-001
 -1.4291494e-001
 -1.6348044e-001
 -1.7808949e-001
 -1.8477874e-001
 -1.8268084e-001
 -1.7218190e-001
 -1.5478456e-001
 -1.3265391e-001
 -1.0791511e-001
 -8.1896082e-002
 -5.4610986e-002
 -2.4766951e-002
  9.6095661e-003
  5.0135695e-002
  9.7084869e-002
  1.4892958e-001
  2.0264480e-001
  2.5462346e-001
  3.0175798e-001
  3.4217690e-001
  3.7532213e-001
  4.0141693e-001
  4.2071818e-001
  4.3305707e-001
  4.3796534e-001
  4.3528115e-001
  4.2579267e-001
  4.1142945e-001
  3.9478003e-001
  3.7812794e-001
  3.6249949e-001
  3.4723377e-001
  3.3032443e-001
  3.0939936e-001
  2.8289040e-001
  2.5084114e-001
  2.1495851e-001
  1.7787744e-001
  1.4201016e-001
  1.0857522e-001
  7.7302657e-002
  4.6927674e-002
  1.6136223e-002
 -1.5615082e-002
 -4.7865277e-002
 -7.9574317e-002
 -1.0988291e-001
 -1.3871853e-001
 -1.6688839e-001
 -1.9560589e-001
 -2.2570876e-001
 -2.5699992e-001
 -2.8808749e-001
 -3.1682862e-001
 -3.4114833e-001
 -3.5981971e-001
 -3.7285252e-001
 -3.8136233e-001
 -3.8703230e-001
 -3.9143582e-001
 -3.9551791e-001
 -3.9942666e-001
 -4.0269091e-001
 -4.0456923e-001
 -4.0435121e-001
 -4.0148229e-001
 -3.9552494e-001
 -3.8607230e-001
 -3.7274581e-001
 -3.5533476e-001
 -3.3402008e-001
 -3.0954878e-001
 -2.8324506e-001
 -2.5683270e-001
 -2.3211683e-001
 -2.1059386e-001
 -1.9306423e-001
 -1.7935797e-001
 -1.6831474e-001
 -1.5810796e-001
 -1.4685447e-001
 -1.3329758e-001
 -1.1730367e-001
 -9.9989891e-002
 -8.3434525e-002
 -7.0042279e-002
 -6.1731777e-002
 -5.9189934e-002
 -6.1472503e-002
 -6.6166694e-002
 -7.0139716e-002
 -7.0629664e-002
 -6.6235402e-002
 -5.7376156e-002
 -4.6037468e-002
 -3.4951956e-002
 -2.6587775e-002
 -2.2342921e-002
 -2.2208596e-002
 -2.4964565e-002
 -2.8783467e-002
 -3.1994463e-002
 -3.3712970e-002
 -3.4100059e-002
 -3.4171798e-002
 -3.5278123e-002
 -3.8502229e-002
 -4.4218961e-002
 -5.1932208e-002
 -6.0394634e-002
 -6.7957680e-002
 -7.3074125e-002
 -7.4825804e-002
 -7.3283952e-002
 -6.9507188e-002
 -6.5112554e-002
 -6.1585274e-002
 -5.9672496e-002
 -5.9179030e-002
 -5.9240464e-002
 -5.8862617e-002
 -5.7393463e-002
 -5.4700436e-002
 -5.1051239e-002
 -4.6865836e-002
 -4.2523827e-002
 -3.8309631e-002
 -3.4465497e-002
 -3.1271342e-002
 -2.9075925e-002
 -2.8231206e-002
 -2.8918761e-002
 -3.0911973e-002
 -3.3383508e-002
 -3.4900866e-002
 -3.3702085e-002
 -2.8211466e-002
 -1.7616502e-002
 -2.2695562e-003
  1.6269761e-002
  3.5607765e-002
  5.3212401e-002
  6.7211784e-002
  7.7010488e-002
  8.3472670e-002
  8.8568919e-002
  9.4601338e-002
  1.0330715e-001
  1.1519504e-001
  1.2936650e-001
  1.4387819e-001
  1.5649553e-001
  1.6553189e-001
  1.7041564e-001
  1.7173477e-001
  1.7076833e-001
  1.6879983e-001
  1.6663226e-001
  1.6458578e-001
  1.6292642e-001
  1.6236247e-001
  1.6417062e-001
  1.6974676e-001
  1.7977140e-001
  1.9347867e-001
  2.0852587e-001
  2.2167275e-001
  2.3005438e-001
  2.3248417e-001
  2.3012983e-001
  2.2613819e-001
  2.2426776e-001
  2.2709649e-001
  2.3463946e-001
  2.4407468e-001
  2.5077914e-001
  2.5025532e-001
  2.4008922e-001
  2.2104501e-001
  1.9678836e-001
  1.7235551e-001
  1.5205618e-001
  1.3775440e-001
  1.2829521e-001
  1.2031561e-001
  1.1004141e-001
  9.5228846e-002
  7.6362675e-002
  5.6578765e-002
  4.0364801e-002
  3.1641897e-002
  3.2094617e-002
  4.0479251e-002
  5.3176861e-002
  6.5700704e-002
  7.4475766e-002
  7.8138298e-002
  7.7854644e-002
  7.6594104e-002
  7.7712522e-002
  8.3447774e-002
  9.3926435e-002
  1.0705828e-001
  1.1933750e-001
  1.2720088e-001
  1.2836270e-001
  1.2257293e-001
  1.1152899e-001
  9.8064224e-002
  8.5027092e-002
  7.4322829e-002
  6.6436801e-002
  6.0520322e-002
  5.4914306e-002
  4.7866679e-002
  3.8172589e-002
  2.5530148e-002
  1.0543980e-002
 -5.5358245e-003
 -2.1172338e-002
 -3.4872705e-002
 -4.5468291e-002
 -5.2368844e-002
 -5.5758818e-002
 -5.6615142e-002
 -5.6427813e-002
 -5.6644934e-002
 -5.8055620e-002
 -6.0413797e-002
 -6.2506661e-002
 -6.2643478e-002
 -5.9339594e-002
 -5.1914745e-002
 -4.0804592e-002
 -2.7505693e-002
 -1.4169309e-002
 -2.9374430e-003
  4.7942295e-003
  8.9206785e-003
  1.0721254e-002
  1.2398303e-002
  1.6206780e-002
  2.3528025e-002
  3.4277673e-002
  4.6889184e-002
  5.8872453e-002
  6.7729481e-002
  7.1888946e-002
  7.1316697e-002
  6.7562184e-002
  6.3193711e-002
  6.0812048e-002
  6.2025534e-002
  6.6818535e-002
  7.3594239e-002
  7.9873439e-002
  8.3333820e-002
  8.2736340e-002
  7.8363117e-002
  7.1820205e-002
  6.5320387e-002
  6.0754485e-002
  5.8924712e-002
  5.9235825e-002
  5.9956676e-002
  5.8949952e-002
  5.4593227e-002
  4.6532213e-002
  3.5954256e-002
  2.5249316e-002
  1.7173822e-002
  1.3840803e-002
  1.5938349e-002
  2.2497682e-002
  3.1316963e-002
  3.9874714e-002
  4.6360157e-002
  5.0412717e-002
  5.3307532e-002
  5.7555810e-002
  6.6094512e-002
  8.1353391e-002
  1.0449838e-001
  1.3507740e-001
  1.7116329e-001
  2.0992935e-001
  2.4844815e-001
  2.8442830e-001
  3.1664082e-001
  3.4493679e-001
  3.6995336e-001
  3.9273205e-001
  4.1445374e-001
  4.3636820e-001
  4.5988540e-001
  4.8677736e-001
  5.1945544e-001
  5.6123670e-001
  6.1640200e-001
  6.8980429e-001
  7.8591318e-001
  9.0744689e-001
  1.0540043e+000
  1.2212276e+000
  1.4009303e+000
  1.5823324e+000
  1.7541385e+000
  1.9068138e+000
  2.0342122e+000
  2.1338026e+000
  2.2051913e+000
  2.2473585e+000
  2.2557486e+000
  2.2206772e+000
  2.1281867e+000
  1.9635503e+000
  1.7164685e+000
  1.3860965e+000
  9.8382499e-001
  5.3239064e-001
  6.1270967e-002
 -4.0012613e-001
 -8.2895533e-001
 -1.2126649e+000
 -1.5487066e+000
 -1.8406999e+000
 -2.0929736e+000
 -2.3059121e+000
 -2.4739695e+000
 -2.5869621e+000
 -2.6339154e+000
 -2.6078155e+000
 -2.5093655e+000
 -2.3482967e+000
 -2.1417875e+000
 -1.9106902e+000
 -1.6750802e+000
 -1.4507268e+000
 -1.2474637e+000
 -1.0694941e+000
 -9.1692189e-001
 -7.8757209e-001
 -6.7841484e-001
 -5.8635434e-001
 -5.0848442e-001
 -4.4203508e-001
 -3.8421782e-001
 -3.3212811e-001
 -2.8280771e-001
 -2.3348971e-001
 -1.8196361e-001
 -1.2694614e-001
 -6.8338544e-002
 -7.2726954e-003
  5.4111714e-002
  1.1315119e-001
  1.6730182e-001
  2.1474541e-001
  2.5471744e-001
  2.8737917e-001
  3.1324405e-001
  3.3241000e-001
  3.4400391e-001
  3.4619288e-001
  3.3685235e-001
  3.1463327e-001
  2.7993621e-001
  2.3532943e-001
  1.8522455e-001
  1.3496522e-001
  8.9686629e-002
  5.3299656e-002
  2.7833728e-002
  1.3259525e-002
  7.8261546e-003
  8.8193704e-003
  1.3468384e-002
  1.9626401e-002
  2.5966518e-002
  3.1738300e-002
  3.6403591e-002
  3.9497821e-002
  4.0820154e-002
  4.0733569e-002
  4.0222395e-002
  4.0534883e-002
  4.2582118e-002
  4.6466535e-002
  5.1411169e-002
  5.6087965e-002
  5.9151547e-002
  5.9764564e-002
  5.7950487e-002
  5.4644211e-002
  5.1376039e-002
  4.9675716e-002
  5.0451917e-002
  5.3654298e-002
  5.8395738e-002
  6.3462245e-002
  6.7916070e-002
  7.1457755e-002
  7.4394683e-002
  7.7328376e-002
  8.0807153e-002
  8.5114424e-002
  9.0199121e-002
  9.5675567e-002
  1.0086106e-001
  1.0488394e-001
  1.0689578e-001
  1.0635924e-001
  1.0331480e-001
  9.8505216e-002
  9.3272259e-002
  8.9215767e-002
  8.7691552e-002
  8.9306349e-002
  9.3615183e-002
  9.9186666e-002
  1.0405804e-001
  1.0642384e-001
  1.0529410e-001
  1.0086850e-001
  9.4479300e-002
  8.8111082e-002
  8.3660972e-002
  8.2208876e-002
  8.3581025e-002
  8.6397521e-002
  8.8609989e-002
  8.8312449e-002
  8.4458874e-002
  7.7164153e-002
  6.7501469e-002
  5.6975564e-002
  4.6963658e-002
  3.8341666e-002
  3.1368549e-002
  2.5799221e-002
  2.1148338e-002
  1.6992957e-002
  1.3180562e-002
  9.8467046e-003
  7.2572082e-003
  5.6014518e-003
  4.8777246e-003
  4.9173161e-003
  5.4868883e-003
  6.3865360e-003
  7.5173235e-003
  8.9371257e-003
  1.0899137e-002
  1.3813230e-002
  1.8070147e-002
  2.3753673e-002
  3.0382687e-002
  3.6875839e-002
  4.1847684e-002
  4.4152784e-002
  4.3419127e-002
  4.0285093e-002
  3.6199429e-002
  3.2864978e-002
  3.1574965e-002
  3.2729421e-002
  3.5727415e-002
  3.9262405e-002
  4.1882563e-002
  4.2581807e-002
  4.1185070e-002
  3.8371537e-002
  3.5316566e-002
  3.3090374e-002
  3.2070740e-002
  3.1642372e-002
  3.0340165e-002
  2.6391522e-002
  1.8423312e-002
  6.0201013e-003
 -1.0105756e-002
 -2.8383247e-002
 -4.6939123e-002
 -6.4174312e-002
 -7.9109695e-002
 -9.1374849e-002
 -1.0088342e-001
 -1.0738140e-001
 -1.1010506e-001
 -1.0772210e-001
 -9.8594963e-002
 -8.1267744e-002
 -5.4991670e-002
 -2.0084509e-002
  2.2033439e-002
  6.9172634e-002
  1.1896752e-001
  1.6948649e-001
  2.1958584e-001
  2.6884786e-001
  3.1715720e-001
  3.6417480e-001
  4.0902079e-001
  4.5031517e-001
  4.8646082e-001
  5.1591289e-001
  5.3728759e-001
  5.4940783e-001
  5.5151040e-001
  5.4369957e-001
  5.2743276e-001
  5.0563597e-001
  4.8217114e-001
  4.6075477e-001
  4.4377802e-001
  4.3154308e-001
  4.2220150e-001
  4.1237410e-001
  3.9824504e-001
  3.7685860e-001
  3.4729198e-001
  3.1129964e-001
  2.7305026e-001
  2.3784818e-001
  2.1019777e-001
  1.9196536e-001
  1.8143964e-001
  1.7373660e-001
  1.6243561e-001
  1.4184426e-001
  1.0905402e-001
  6.5028487e-002
  1.4325495e-002
 -3.6436401e-002
 -8.0789375e-002
 -1.1449366e-001
 -1.3675505e-001
 -1.5020938e-001
 -1.5975612e-001
 -1.7070655e-001
 -1.8690764e-001
 -2.0947456e-001
 -2.3652793e-001
 -2.6395568e-001
 -2.8684118e-001
 -3.0098981e-001
 -3.0403964e-001
 -2.9589679e-001
 -2.7852230e-001
 -2.5527059e-001
 -2.3001131e-001
 -2.0622437e-001
 -1.8622570e-001
 -1.7068533e-001
 -1.5859263e-001
 -1.4773432e-001
 -1.3557418e-001
 -1.2024573e-001
 -1.0130002e-001
 -7.9932783e-002
 -5.8612181e-002
 -4.0256024e-002
 -2.7274661e-002
 -2.0834516e-002
 -2.0597724e-002
 -2.5002717e-002
 -3.1943583e-002
 -3.9556152e-002
 -4.6787986e-002
 -5.3542554e-002
 -6.0396805e-002
 -6.8087385e-002
 -7.7045653e-002
 -8.7204528e-002
 -9.8138372e-002
 -1.0941175e-001
 -1.2090124e-001
 -1.3288241e-001
 -1.4582667e-001
 -1.6003773e-001
 -1.7535935e-001
 -1.9114191e-001
 -2.0649438e-001
 -2.2067938e-001
 -2.3344188e-001
 -2.4511921e-001
 -2.5649509e-001
 -2.6845972e-001
 -2.8159871e-001
 -2.9585794e-001
 -3.1041499e-001
 -3.2382890e-001
 -3.3445860e-001
 -3.4105627e-001
 -3.4336011e-001
 -3.4244945e-001
 -3.4063694e-001
 -3.4080241e-001
 -3.4531125e-001
 -3.5491361e-001
 -3.6813945e-001
 -3.8157322e-001
 -3.9102526e-001
 -3.9318499e-001
 -3.8707183e-001
 -3.7463474e-001
 -3.6017960e-001
 -3.4878511e-001
 -3.4430665e-001
 -3.4777971e-001
 -3.5691263e-001
 -3.6692514e-001
 -3.7241042e-001
 -3.6943696e-001
 -3.5700367e-001
 -3.3728005e-001
 -3.1461879e-001
 -2.9382675e-001
 -2.7841476e-001
 -2.6948492e-001
 -2.6562436e-001
 -2.6376504e-001
 -2.6058495e-001
 -2.5382434e-001
 -2.4297414e-001
 -2.2912960e-001
 -2.1422204e-001
 -2.0011226e-001
 -1.8800063e-001
 -1.7832317e-001
 -1.7098072e-001
 -1.6561499e-001
 -1.6174709e-001
 -1.5878447e-001
 -1.5601428e-001
 -1.5268266e-001
 -1.4817042e-001
 -1.4219498e-001
 -1.3493563e-001
 -1.2699816e-001
 -1.1919795e-001
 -1.1222871e-001
 -1.0635642e-001
 -1.0128458e-001
 -9.6263145e-002
 -9.0399027e-002
 -8.3035590e-002
 -7.4046364e-002
 -6.3931943e-002
 -5.3685447e-002
 -4.4466430e-002
 -3.7183492e-002
 -3.2128982e-002
 -2.8815841e-002
 -2.6107722e-002
 -2.2611732e-002
 -1.7177360e-002
 -9.2958831e-003
  7.4531147e-004
  1.1977987e-002
  2.3064446e-002
  3.2698293e-002
  3.9994736e-002
  4.4776672e-002
  4.7665683e-002
  4.9920212e-002
  5.3045379e-002
  5.8297635e-002
  6.6259727e-002
  7.6629964e-002
  8.8277912e-002
  9.9530477e-002
  1.0861043e-001
  1.1413437e-001
  1.1554716e-001
  1.1333946e-001
  1.0893176e-001
  1.0423663e-001
  1.0105878e-001
  1.0055810e-001
  1.0295332e-001
  1.0753649e-001
  1.1296748e-001
  1.1774800e-001
  1.2072839e-001
  1.2148094e-001
  1.2040454e-001
  1.1851939e-001
  1.1703848e-001
  1.1690150e-001
  1.1846763e-001
  1.2147516e-001
  1.2524135e-001
  1.2897332e-001
  1.3203918e-001
  1.3410048e-001
  1.3509287e-001
  1.3511489e-001
  1.3431162e-001
  1.3281076e-001
  1.3071038e-001
  1.2808057e-001
  1.2495792e-001
  1.2135532e-001
  1.1732252e-001
  1.1304725e-001
  1.0892329e-001
  1.0550100e-001
  1.0330232e-001
  1.0257866e-001
  1.0314272e-001
  1.0437559e-001
  1.0542465e-001
  1.0551521e-001
  1.0424563e-001
  1.0173988e-001
  9.8590925e-002
  9.5615023e-002
  9.3516517e-002
  9.2601262e-002
  9.2653950e-002
  9.3018988e-002
  9.2837627e-002
  9.1343063e-002
  8.8114147e-002
  8.3214985e-002
  7.7179833e-002
  7.0843221e-002
  6.5069942e-002
  6.0485080e-002
  5.7303862e-002
  5.5309978e-002
  5.3964580e-002
  5.2589400e-002
  5.0571011e-002
  4.7555472e-002
  4.3604529e-002
  3.9257296e-002
  3.5425264e-002
  3.3091840e-002
  3.2888998e-002
  3.4722744e-002
  3.7644371e-002
  4.0084179e-002
  4.0404520e-002
  3.7563644e-002
  3.1602372e-002
  2.3726397e-002
  1.5929847e-002
  1.0297745e-002
  8.2468334e-003
  9.9819014e-003
  1.4371562e-002
  1.9309838e-002
  2.2460312e-002
  2.2128590e-002
  1.7936401e-002
  1.1015470e-002
  3.6018940e-003
 -1.8484581e-003
 -3.6740852e-003
 -1.7036645e-003
  2.6992233e-003
  7.2769494e-003
  9.9053286e-003
  9.5195594e-003
  6.5058945e-003
  2.3931845e-003
 -9.8171949e-004
 -2.4122133e-003
 -1.8994713e-003
 -5.9055438e-004
 -1.2327752e-004
 -1.7225113e-003
 -5.5079129e-003
 -1.0352510e-002
 -1.4354690e-002
 -1.5701636e-002
 -1.3535028e-002
 -8.4353354e-003
 -2.3062768e-003
  2.3059972e-003
  3.1915075e-003
 -6.3531672e-004
 -8.4957475e-003
 -1.8244385e-002
 -2.7042166e-002
 -3.2407735e-002
 -3.3136983e-002
 -2.9735579e-002
 -2.4196185e-002
 -1.9194071e-002
 -1.6999019e-002
 -1.8538057e-002
 -2.3019844e-002
 -2.8317325e-002
 -3.1968622e-002
 -3.2350580e-002
 -2.9465848e-002
 -2.4943823e-002
 -2.1229227e-002
 -2.0333382e-002
 -2.2749500e-002
 -2.7081710e-002
 -3.0630393e-002
 -3.0728887e-002
 -2.6224203e-002
 -1.8346308e-002
 -1.0439360e-002
 -6.5641321e-003
 -9.5667663e-003
 -1.9534510e-002
 -3.3434179e-002
 -4.6193050e-002
 -5.2794451e-002
 -5.0465414e-002
 -3.9966441e-002
 -2.5370006e-002
 -1.2369705e-002
 -5.8346725e-003
 -7.7193242e-003
 -1.6324824e-002
 -2.7276212e-002
 -3.5720920e-002
 -3.8633222e-002
 -3.6076886e-002
 -3.0854770e-002
 -2.6833058e-002
 -2.6889982e-002
 -3.1556665e-002
 -3.8972673e-002
 -4.6059053e-002
 -5.0208387e-002
 -5.0585009e-002
 -4.8385910e-002
 -4.5987336e-002
 -4.5497753e-002
 -4.7537144e-002
 -5.0898412e-002
 -5.3220920e-002
 -5.2243870e-002
 -4.6943994e-002
 -3.8014525e-002
 -2.7548054e-002
 -1.8162640e-002
 -1.1983315e-002
 -9.8733852e-003
 -1.1192994e-002
 -1.4181441e-002
 -1.6810956e-002
 -1.7719468e-002
 -1.6764193e-002
 -1.4938561e-002
 -1.3749107e-002
 -1.4420533e-002
 -1.7328465e-002
 -2.1876380e-002
 -2.6788705e-002
 -3.0633760e-002
 -3.2358943e-002
 -3.1659360e-002
 -2.9054815e-002
 -2.5631092e-002
 -2.2536644e-002
 -2.0467045e-002
 -1.9402130e-002
 -1.8725584e-002
 -1.7637181e-002
 -1.5618618e-002
 -1.2717788e-002
 -9.5388647e-003
 -6.9788257e-003
 -5.8594124e-003
 -6.6284240e-003
 -9.2491337e-003
 -1.3295723e-002
 -1.8174496e-002
 -2.3342819e-002
 -2.8422889e-002
 -3.3184494e-002
 -3.7449536e-002
 -4.1005990e-002
 -4.3594893e-002
 -4.4971515e-002
 -4.4985590e-002
 -4.3615577e-002
 -4.0934652e-002
 -3.7046402e-002
 -3.2053494e-002
 -2.6087794e-002
 -1.9366486e-002
 -1.2208286e-002
 -4.9776160e-003
  2.0128981e-003
  8.5822939e-003
  1.4707984e-002
  2.0500339e-002
  2.6133438e-002
  3.1728590e-002
  3.7201781e-002
  4.2141549e-002
  4.5830029e-002
  4.7482427e-002
  4.6643873e-002
  4.3537047e-002
  3.9130376e-002
  3.4838897e-002
  3.1983069e-002
  3.1267846e-002
  3.2528152e-002
  3.4843842e-002
  3.6944764e-002
  3.7702642e-002
  3.6500282e-002
  3.3360559e-002
  2.8830720e-002
  2.3694106e-002
  1.8620967e-002
  1.3888292e-002
  9.2839007e-003
  4.2426736e-003
 -1.8405885e-003
 -9.2615275e-003
 -1.7778392e-002
 -2.6613804e-002
 -3.4699644e-002
 -4.1074066e-002
 -4.5266007e-002
 -4.7499281e-002
 -4.8620530e-002
 -4.9765088e-002
 -5.1875420e-002
 -5.5250430e-002
 -5.9315208e-002
 -6.2744389e-002
 -6.3945352e-002
 -6.1744108e-002
 -5.5990179e-002
 -4.7786199e-002
 -3.9190119e-002
 -3.2487272e-002
 -2.9355567e-002
 -3.0304910e-002
 -3.4617261e-002
 -4.0751147e-002
 -4.6972000e-002
 -5.1924604e-002
 -5.4954205e-002
 -5.6124446e-002
 -5.6003373e-002
 -5.5357852e-002
 -5.4896474e-002
 -5.5135831e-002
 -5.6373451e-002
 -5.8690447e-002
 -6.1913722e-002
 -6.5533037e-002
 -6.8650609e-002
 -7.0081055e-002
 -6.8669971e-002
 -6.3770129e-002
 -5.5682990e-002
 -4.5828981e-002
 -3.6489213e-002
 -3.0136922e-002
 -2.8582209e-002
 -3.2296755e-002
 -4.0269669e-002
 -5.0529937e-002
 -6.1133482e-002
 -7.1138479e-002
 -8.1058964e-002
 -9.2536333e-002
 -1.0736968e-001
 -1.2637440e-001
 -1.4861900e-001
 -1.7139924e-001
 -1.9096510e-001
 -2.0368768e-001
 -2.0717507e-001
 -2.0088085e-001
 -1.8597210e-001
 -1.6454323e-001
 -1.3854526e-001
 -1.0892686e-001
 -7.5385159e-002
 -3.6833392e-002
  7.6596486e-003
  5.7940379e-002
  1.1232798e-001
  1.6788351e-001
  2.2124914e-001
  2.6963441e-001
  3.1147661e-001
  3.4649057e-001
  3.7512689e-001
  3.9773424e-001
  4.1387931e-001
  4.2225451e-001
  4.2134553e-001
  4.1059079e-001
  3.9137591e-001
  3.6717236e-001
  3.4255793e-001
  3.2151441e-001
  3.0585309e-001
  2.9456732e-001
  2.8440195e-001
  2.7131328e-001
  2.5214256e-001
  2.2585780e-001
  1.9397167e-001
  1.6001279e-001
  1.2817979e-001
  1.0160728e-001
  8.0948146e-002
  6.3982129e-002
  4.6531539e-002
  2.4276757e-002
 -5.4375637e-003
 -4.2670820e-002
 -8.5143256e-002
 -1.2934378e-001
 -1.7183272e-001
 -2.1021287e-001
 -2.4358289e-001
 -2.7252380e-001
 -2.9870215e-001
 -3.2414161e-001
 -3.5029401e-001
 -3.7722577e-001
 -4.0333604e-001
 -4.2585815e-001
 -4.4199772e-001
 -4.5018248e-001
 -4.5080559e-001
 -4.4609774e-001
 -4.3919275e-001
 -4.3280920e-001
 -4.2810615e-001
 -4.2417385e-001
 -4.1836527e-001
 -4.0735867e-001
 -3.8856656e-001
 -3.6135954e-001
 -3.2761302e-001
 -2.9131380e-001
 -2.5732073e-001
 -2.2973579e-001
 -2.1054334e-001
 -1.9908852e-001
 -1.9259074e-001
 -1.8740677e-001
 -1.8043956e-001
 -1.7011030e-001
 -1.5661808e-001
 -1.4157039e-001
 -1.2726681e-001
 -1.1591951e-001
 -1.0900741e-001
 -1.0688429e-001
 -1.0870368e-001
 -1.1265098e-001
 -1.1639551e-001
 -1.1763524e-001
 -1.1461918e-001
 -1.0656422e-001
 -9.3892331e-002
 -7.8202893e-002
 -6.1916676e-002
 -4.7628046e-002
 -3.7353486e-002
 -3.1962098e-002
 -3.1025836e-002
 -3.3145110e-002
 -3.6592602e-002
 -3.9986185e-002
 -4.2707565e-002
 -4.4917542e-002
 -4.7216236e-002
 -5.0159094e-002
 -5.3885187e-002
 -5.8026561e-002
 -6.1902856e-002
 -6.4856373e-002
 -6.6525080e-002
 -6.6904131e-002
 -6.6169983e-002
 -6.4368655e-002
 -6.1148943e-002
 -5.5723829e-002
 -4.7154959e-002
 -3.4889339e-002
 -1.9302568e-002
 -1.9282789e-003
  1.4843314e-002
  2.8561024e-002
  3.7692321e-002
  4.2338284e-002
  4.4313043e-002
  4.6478039e-002
  5.1548096e-002
  6.0839876e-002
  7.3505758e-002
  8.6643318e-002
  9.6333573e-002
  9.9263817e-002
  9.4296653e-002
  8.3293392e-002
  7.0743503e-002
  6.2228943e-002
  6.2276328e-002
  7.2475879e-002
  9.0696007e-002
  1.1179072e-001
  1.2956184e-001
  1.3918335e-001
  1.3907989e-001
  1.3148122e-001
  1.2143981e-001
  1.1473790e-001
  1.1554729e-001
  1.2477478e-001
  1.3972701e-001
  1.5519133e-001
  1.6546062e-001
  1.6645029e-001
  1.5703310e-001
  1.3908951e-001
  1.1637593e-001
  9.2840443e-002
  7.1187193e-002
  5.2249977e-002
  3.5268532e-002
  1.8744008e-002
  1.3765283e-003
 -1.7316876e-002
 -3.6858497e-002
 -5.6059876e-002
 -7.3465329e-002
 -8.7790450e-002
 -9.8229494e-002
 -1.0459122e-001
 -1.0727446e-001
 -1.0709501e-001
 -1.0496252e-001
 -1.0144989e-001
 -9.6410021e-002
 -8.8878339e-002
 -7.7432624e-002
 -6.0952948e-002
 -3.9470466e-002
 -1.4682855e-002
  1.0178286e-002
  3.1169217e-002
  4.4874916e-002
  4.9586723e-002
  4.5920449e-002
  3.6587791e-002
  2.5389004e-002
  1.5831565e-002
  9.9309511e-003
  7.6460006e-003
  7.1086474e-003
  5.4788540e-003
  4.1011609e-005
 -1.0868031e-002
 -2.7373877e-002
 -4.8094090e-002
 -7.0579036e-002
 -9.1966392e-002
 -1.0964343e-001
 -1.2176370e-001
 -1.2753975e-001
 -1.2730000e-001
 -1.2234110e-001
 -1.1462601e-001
 -1.0637623e-001
 -9.9602295e-002
 -9.5633204e-002
 -9.4749647e-002
 -9.6058105e-002
 -9.7712088e-002
 -9.7476360e-002
 -9.3480866e-002
 -8.4897630e-002
 -7.2265367e-002
 -5.7308539e-002
 -4.2307588e-002
 -2.9275595e-002
 -1.9281870e-002
 -1.2191762e-002
 -6.9006808e-003
 -1.9220092e-003
  3.9545545e-003
  1.1223296e-002
  1.9603971e-002
  2.8335708e-002
  3.6633274e-002
  4.4059620e-002
  5.0636128e-002
  5.6661382e-002
  6.2365918e-002
  6.7619237e-002
  7.1879305e-002
  7.4440397e-002
  7.4858997e-002
  7.3316686e-002
  7.0688458e-002
  6.8230920e-002
  6.7014355e-002
  6.7381026e-002
  6.8725313e-002
  6.9741145e-002
  6.9042630e-002
  6.5864270e-002
  6.0497499e-002
  5.4244636e-002
  4.8897274e-002
  4.5956986e-002
  4.5925382e-002
  4.7974675e-002
  5.0183496e-002
  5.0309925e-002
  4.6827046e-002
  3.9772569e-002
  3.0985446e-002
  2.3558668e-002
  2.0717719e-002
  2.4622029e-002
  3.5608506e-002
  5.2156014e-002
  7.1520430e-002
  9.0758292e-002
  1.0778400e-001
  1.2213794e-001
  1.3522505e-001
  1.4991501e-001
  1.6958485e-001
  1.9688614e-001
  2.3264490e-001
  2.7529260e-001
  3.2108455e-001
  3.6512575e-001
  4.0294010e-001
  4.3207044e-001
  4.5311276e-001
  4.6976879e-001
  4.8790396e-001
  5.1402296e-001
  5.5379017e-001
  6.1112557e-001
  6.8807304e-001
  7.8524662e-001
  9.0239164e-001
  1.0385724e+000
  1.1917426e+000
  1.3578762e+000
  1.5302282e+000
  1.6994136e+000
  1.8546720e+000
  1.9860163e+000
  2.0863165e+000
  2.1521837e+000
  2.1830114e+000
  2.1784673e+000
  2.1356041e+000
  2.0471197e+000
  1.9019607e+000
  1.6885479e+000
  1.3997290e+000
  1.0375866e+000
  6.1594332e-001
  1.5911007e-001
 -3.0305126e-001
 -7.4203042e-001
 -1.1369046e+000
 -1.4775757e+000
 -1.7640028e+000
 -2.0020949e+000
 -2.1981839e+000
 -2.3543788e+000
 -2.4665716e+000
 -2.5257605e+000
 -2.5220733e+000
 -2.4498397e+000
 -2.3116150e+000
 -2.1194754e+000
 -1.8930688e+000
 -1.6552627e+000
 -1.4271004e+000
 -1.2237908e+000
 -1.0527915e+000
 -9.1413977e-001
 -8.0247733e-001
 -7.0988462e-001
 -6.2864943e-001
 -5.5329741e-001
 -4.8150029e-001
 -4.1379989e-001
 -3.5239735e-001
 -2.9948933e-001
 -2.5573280e-001
 -2.1936437e-001
 -1.8628718e-001
 -1.5110520e-001
 -1.0874292e-001
 -5.6088069e-002
  6.8798214e-003
  7.6806505e-002
  1.4759917e-001
  2.1183632e-001
  2.6262849e-001
  2.9544461e-001
  3.0931515e-001
  3.0690927e-001
  2.9334772e-001
  2.7416296e-001
  2.5326283e-001
  2.3180562e-001
  2.0847928e-001
  1.8100496e-001
  1.4810131e-001
  1.1093430e-001
  7.3322311e-002
  4.0550683e-002
  1.7311740e-002
  5.7243567e-003
  4.3868814e-003
  8.9589404e-003
  1.4052078e-002
  1.5573111e-002
  1.2422390e-002
  6.7348475e-003
  2.5419099e-003
  3.5014837e-003
  1.0815366e-002
  2.2385773e-002
  3.3669872e-002
  3.9847742e-002
  3.8238178e-002
  2.9735111e-002
  1.8505420e-002
  1.0064231e-002
  8.6703831e-003
  1.5325234e-002
  2.7342723e-002
  3.9669839e-002
  4.7287118e-002
  4.7523003e-002
  4.1192259e-002
  3.2059098e-002
  2.4937629e-002
  2.3383856e-002
  2.8096839e-002
  3.6761268e-002
  4.5332052e-002
  5.0056122e-002
  4.9205125e-002
  4.3712850e-002
  3.6530722e-002
  3.1162651e-002
  3.0156603e-002
  3.4205749e-002
  4.2119996e-002
  5.1533604e-002
  5.9971046e-002
  6.5819257e-002
  6.8826589e-002
  6.9956315e-002
  7.0720659e-002
  7.2381116e-002
  7.5455329e-002
  7.9750461e-002
  8.4778588e-002
  9.0170046e-002
  9.5772628e-002
  1.0143073e-001
  1.0670441e-001
  1.1080623e-001
  1.1283811e-001
  1.1219436e-001
  1.0890269e-001
  1.0371520e-001
  9.7882002e-002
  9.2686893e-002
  8.8946214e-002
  8.6708681e-002
  8.5313320e-002
  8.3793702e-002
  8.1435790e-002
  7.8194296e-002
  7.4720059e-002
  7.1955940e-002
  7.0520529e-002
  7.0245991e-002
  7.0155987e-002
  6.8910988e-002
  6.5484838e-002
  5.9725047e-002
  5.2526856e-002
  4.5542830e-002
  4.0548685e-002
  3.8717063e-002
  4.0082645e-002
  4.3415405e-002
  4.6578604e-002
  4.7272846e-002
  4.3905344e-002
  3.6243013e-002
  2.5577940e-002
  1.4345506e-002
  5.3618595e-003
  9.4963365e-004
  2.1938552e-003
  8.5183033e-003
  1.7738058e-002
  2.6652532e-002
  3.2052492e-002
  3.1818824e-002
  2.5718396e-002
  1.5583357e-002
  4.7519417e-003
 -3.0902160e-003
 -5.2683137e-003
 -1.1443181e-003
  7.6222797e-003
  1.7707514e-002
  2.5405156e-002
  2.8035907e-002
  2.4907302e-002
  1.7451936e-002
  8.5381672e-003
  1.2941942e-003
 -2.0442665e-003
 -8.1008248e-004
  4.1130347e-003
  1.0909335e-002
  1.7705140e-002
  2.3280640e-002
  2.7341797e-002
  3.0329844e-002
  3.2962941e-002
  3.5776907e-002
  3.8855749e-002
  4.1802933e-002
  4.3898388e-002
  4.4350361e-002
  4.2558195e-002
  3.8311937e-002
  3.1858500e-002
  2.3787873e-002
  1.4761792e-002
  5.2022442e-003
 -4.8847827e-003
 -1.5813705e-002
 -2.7853328e-002
 -4.0756069e-002
 -5.3432900e-002
 -6.3970486e-002
 -7.0025151e-002
 -6.9451090e-002
 -6.0914576e-002
 -4.4249570e-002
 -2.0410462e-002
  8.9664413e-003
  4.2222958e-002
  7.8289214e-002
  1.1697633e-001
  1.5880633e-001
  2.0443490e-001
  2.5392033e-001
  3.0619130e-001
  3.5900183e-001
  4.0943710e-001
  4.5474708e-001
  4.9309722e-001
  5.2387026e-001
  5.4742336e-001
  5.6452649e-001
  5.7585874e-001
  5.8182377e-001
  5.8267103e-001
  5.7869197e-001
  5.7025406e-001
  5.5763184e-001
  5.4083009e-001
  5.1965995e-001
  4.9413668e-001
  4.6495439e-001
  4.3363353e-001
  4.0210294e-001
  3.7187173e-001
  3.4327165e-001
  3.1526322e-001
  2.8598147e-001
  2.5375564e-001
  2.1805418e-001
  1.7985222e-001
  1.4124226e-001
  1.0448859e-001
  7.0959814e-002
  4.0405956e-002
  1.0920578e-002
 -2.0319777e-002
 -5.5779888e-002
 -9.6294344e-002
 -1.4041436e-001
 -1.8473158e-001
 -2.2506516e-001
 -2.5798090e-001
 -2.8198229e-001
 -2.9791815e-001
 -3.0853937e-001
 -3.1747837e-001
 -3.2806240e-001
 -3.4230860e-001
 -3.6031120e-001
 -3.8013019e-001
 -3.9823202e-001
 -4.1044884e-001
 -4.1327648e-001
 -4.0516447e-001
 -3.8735775e-001
 -3.6390801e-001
 -3.4070560e-001
 -3.2373243e-001
 -3.1707604e-001
 -3.2142119e-001
 -3.3364536e-001
 -3.4779089e-001
 -3.5717824e-001
 -3.5693948e-001
 -3.4599278e-001
 -3.2760485e-001
 -3.0821391e-001
 -2.9492244e-001
 -2.9268803e-001
 -3.0241991e-001
 -3.2079731e-001
 -3.4183231e-001
 -3.5940722e-001
 -3.6963163e-001
 -3.7204491e-001
 -3.6928354e-001
 -3.6552045e-001
 -3.6446769e-001
 -3.6783486e-001
 -3.7484506e-001
 -3.8288824e-001
 -3.8889281e-001
 -3.9073340e-001
 -3.8805219e-001
 -3.8219809e-001
 -3.7541497e-001
 -3.6973609e-001
 -3.6612087e-001
 -3.6419412e-001
 -3.6262679e-001
 -3.5989496e-001
 -3.5501100e-001
 -3.4789944e-001
 -3.3932763e-001
 -3.3053507e-001
 -3.2279068e-001
 -3.1703844e-001
 -3.1367978e-001
 -3.1248824e-001
 -3.1265788e-001
 -3.1299006e-001
 -3.1218853e-001
 -3.0918477e-001
 -3.0339711e-001
 -2.9484966e-001
 -2.8412294e-001
 -2.7215209e-001
 -2.5992626e-001
 -2.4817765e-001
 -2.3717619e-001
 -2.2673271e-001
 -2.1642745e-001
 -2.0594811e-001
 -1.9533652e-001
 -1.8498362e-001
 -1.7536401e-001
 -1.6666518e-001
 -1.5854409e-001
 -1.5019294e-001
 -1.4073669e-001
 -1.2979098e-001
 -1.1788173e-001
 -1.0645251e-001
 -9.7370623e-002
 -9.2102602e-002
 -9.0926962e-002
 -9.2580447e-002
 -9.4568844e-002
 -9.4081457e-002
 -8.9155879e-002
 -7.9585269e-002
 -6.7131987e-002
 -5.4897361e-002
 -4.6077502e-002
 -4.2629388e-002
 -4.4428955e-002
 -4.9288769e-002
 -5.3823945e-002
 -5.4797772e-002
 -5.0399076e-002
 -4.0953810e-002
 -2.8804548e-002
 -1.7403583e-002
 -9.9530348e-003
 -8.1029177e-003
 -1.1226240e-002
 -1.6603922e-002
 -2.0501689e-002
 -1.9721992e-002
 -1.2957389e-002
 -1.3262064e-003
  1.2152865e-002
  2.3882949e-002
  3.1182106e-002
  3.3291241e-002
  3.1523478e-002
  2.8592262e-002
  2.7478841e-002
  3.0318321e-002
  3.7705242e-002
  4.8622762e-002
  6.0966548e-002
  7.2426559e-002
  8.1359684e-002
  8.7289696e-002
  9.0838942e-002
  9.3177977e-002
  9.5330253e-002
  9.7729197e-002
  1.0024331e-001
  1.0257329e-001
  1.0469106e-001
  1.0699314e-001
  1.1007342e-001
  1.1430679e-001
  1.1955505e-001
  1.2518073e-001
  1.3031185e-001
  1.3415869e-001
  1.3623355e-001
  1.3646459e-001
  1.3525570e-001
  1.3347823e-001
  1.3229912e-001
  1.3279379e-001
  1.3546655e-001
  1.3995028e-001
  1.4510896e-001
  1.4951931e-001
  1.5205574e-001
  1.5225964e-001
  1.5036463e-001
  1.4708583e-001
  1.4335796e-001
  1.4010157e-001
  1.3798012e-001
  1.3714409e-001
  1.3709833e-001
  1.3687104e-001
  1.3549298e-001
  1.3254200e-001
  1.2841290e-001
  1.2413122e-001
  1.2080803e-001
  1.1902303e-001
  1.1843579e-001
  1.1780963e-001
  1.1547025e-001
  1.1004869e-001
  1.0120855e-001
  9.0003867e-002
  7.8636343e-002
  6.9661731e-002
  6.4988781e-002
  6.5130941e-002
  6.9034087e-002
  7.4509283e-002
  7.9036515e-002
  8.0606833e-002
  7.8333691e-002
  7.2693226e-002
  6.5364349e-002
  5.8719099e-002
  5.5087318e-002
  5.5991906e-002
  6.1587658e-002
  7.0501626e-002
  8.0165830e-002
  8.7584051e-002
  9.0318875e-002
  8.7368138e-002
  7.9586676e-002
  6.9444540e-002
  6.0159073e-002
  5.4487744e-002
  5.3625063e-002
  5.6661117e-002
  6.0896043e-002
  6.2961904e-002
  6.0301886e-002
  5.2330289e-002
  4.0714339e-002
  2.8631697e-002
  1.9345335e-002
  1.4761550e-002
  1.4645403e-002
  1.6846337e-002
  1.8389971e-002
  1.6886706e-002
  1.1600610e-002
  3.7279113e-003
 -4.1866398e-003
 -9.3924550e-003
 -1.0109706e-002
 -6.2341505e-003
  6.9343398e-004
  8.1833924e-003
  1.3825481e-002
  1.6217361e-002
  1.5434122e-002
  1.2876224e-002
  1.0582854e-002
  1.0312948e-002
  1.2789236e-002
  1.7425217e-002
  2.2637475e-002
  2.6581148e-002
  2.7958460e-002
  2.6531256e-002
  2.3126186e-002
  1.9172176e-002
  1.6024081e-002
  1.4398288e-002
  1.4156465e-002
  1.4493558e-002
  1.4413716e-002
  1.3274796e-002
  1.1164425e-002
  8.9333731e-003
  7.8451699e-003
  8.9745474e-003
  1.2630639e-002
  1.8104190e-002
  2.3901995e-002
  2.8392446e-002
  3.0567307e-002
  3.0546414e-002
  2.9563390e-002
  2.9421016e-002
  3.1666339e-002
  3.6871828e-002
  4.4353719e-002
  5.2448243e-002
  5.9209793e-002
  6.3211928e-002
  6.4098717e-002
  6.2656484e-002
  6.0394085e-002
  5.8834448e-002
  5.8838196e-002
  6.0253640e-002
  6.2033422e-002
  6.2750174e-002
  6.1274662e-002
  5.7316255e-002
  5.1585970e-002
  4.5503826e-002
  4.0577746e-002
  3.7742968e-002
  3.6979294e-002
  3.7386892e-002
  3.7665443e-002
  3.6737887e-002
  3.4204511e-002
  3.0430324e-002
  2.6276679e-002
  2.2657042e-002
  2.0143338e-002
  1.8783785e-002
  1.8179396e-002
  1.7756990e-002
  1.7097455e-002
  1.6150793e-002
  1.5216986e-002
  1.4691586e-002
  1.4719143e-002
  1.4980173e-002
  1.4783272e-002
  1.3449120e-002
  1.0771916e-002
  7.2738526e-003
  4.0837958e-003
  2.4858346e-003
  3.3539365e-003
  6.7321427e-003
  1.1745366e-002
  1.6887186e-002
  2.0577983e-002
  2.1765350e-002
  2.0302907e-002
  1.6934413e-002
  1.2905526e-002
  9.4211573e-003
  7.2324475e-003
  6.5277160e-003
  7.1000876e-003
  8.6136512e-003
  1.0778219e-002
  1.3354184e-002
  1.6052951e-002
  1.8474084e-002
  2.0180847e-002
  2.0898663e-002
  2.0717684e-002
  2.0161704e-002
  2.0052258e-002
  2.1199964e-002
  2.4044924e-002
  2.8409387e-002
  3.3495073e-002
  3.8157680e-002
  4.1364031e-002
  4.2640922e-002
  4.2301917e-002
  4.1311914e-002
  4.0814118e-002
  4.1537008e-002
  4.3401924e-002
  4.5572817e-002
  4.6953058e-002
  4.6875905e-002
  4.5607082e-002
  4.4355901e-002
  4.4743372e-002
  4.7975150e-002
  5.4147274e-002
  6.2061218e-002
  6.9664881e-002
  7.4916149e-002
  7.6660738e-002
  7.5123362e-002
  7.1808074e-002
  6.8876814e-002
  6.8291316e-002
  7.1076795e-002
  7.6987512e-002
  8.4676293e-002
  9.2267910e-002
  9.8083250e-002
  1.0121544e-001
  1.0174259e-001
  1.0053704e-001
  9.8808884e-002
  9.7614098e-002
  9.7529177e-002
  9.8578995e-002
  1.0037461e-001
  1.0233880e-001
  1.0389894e-001
  1.0459021e-001
  1.0408323e-001
  1.0218264e-001
  9.8831343e-002
  9.4126524e-002
  8.8331893e-002
  8.1863134e-002
  7.5227109e-002
  6.8913113e-002
  6.3262512e-002
  5.8368032e-002
  5.4060886e-002
  5.0021899e-002
  4.5996528e-002
  4.2019147e-002
  3.8507548e-002
  3.6126340e-002
  3.5439174e-002
  3.6507966e-002
  3.8662627e-002
  4.0608137e-002
  4.0878840e-002
  3.8467968e-002
  3.3343577e-002
  2.6575362e-002
  1.9952731e-002
  1.5218767e-002
  1.3261816e-002
  1.3665645e-002
  1.4860861e-002
  1.4816673e-002
  1.1933366e-002
  5.7031582e-003
 -3.1483661e-003
 -1.3039546e-002
 -2.2177354e-002
 -2.9147616e-002
 -3.3240432e-002
 -3.4478556e-002
 -3.3441185e-002
 -3.1005496e-002
 -2.8093733e-002
 -2.5467927e-002
 -2.3592335e-002
 -2.2582355e-002
 -2.2248513e-002
 -2.2211990e-002
 -2.2041327e-002
 -2.1369873e-002
 -1.9987374e-002
 -1.7913841e-002
 -1.5444660e-002
 -1.3136021e-002
 -1.1714001e-002
 -1.1931336e-002
 -1.4426091e-002
 -1.9631003e-002
 -2.7746277e-002
 -3.8748362e-002
 -5.2393136e-002
 -6.8195733e-002
 -8.5409396e-002
 -1.0304313e-001
 -1.1993685e-001
 -1.3487694e-001
 -1.4671633e-001
 -1.5446888e-001
 -1.5736124e-001
 -1.5483925e-001
 -1.4653387e-001
 -1.3219900e-001
 -1.1164851e-001
 -8.4742979e-002
 -5.1480264e-002
 -1.2190929e-002
  3.2254968e-002
  8.0380968e-002
  1.3028088e-001
  1.8000576e-001
  2.2799146e-001
  2.7330939e-001
  3.1559572e-001
  3.5467022e-001
  3.9001746e-001
  4.2039417e-001
  4.4380766e-001
  4.5798167e-001
  4.6121327e-001
  4.5328969e-001
  4.3599770e-001
  4.1285580e-001
  3.8805150e-001
  3.6500341e-001
  3.4521039e-001
  3.2792594e-001
  3.1077812e-001
  2.9099910e-001
  2.6668641e-001
  2.3757837e-001
  2.0509567e-001
  1.7171167e-001
  1.3994782e-001
  1.1140966e-001
  8.6259801e-002
  6.3341988e-002
  4.0864530e-002
  1.7273204e-002
 -8.1328221e-003
 -3.5110176e-002
 -6.2856328e-002
 -9.0567081e-002
 -1.1782456e-001
 -1.4465235e-001
 -1.7131945e-001
 -1.9809778e-001
 -2.2511090e-001
 -2.5226022e-001
 -2.7914776e-001
 -3.0499368e-001
 -3.2866741e-001
 -3.4895417e-001
 -3.6501786e-001
 -3.7682839e-001
 -3.8527817e-001
 -3.9187028e-001
 -3.9809716e-001
 -4.0477678e-001
 -4.1161155e-001
 -4.1712917e-001
 -4.1903135e-001
 -4.1485703e-001
 -4.0277710e-001
 -3.8228429e-001
 -3.5453984e-001
 -3.2221497e-001
 -2.8882455e-001
 -2.5774499e-001
 -2.3124236e-001
 -2.0984604e-001
 -1.9229345e-001
 -1.7609412e-001
 -1.5856052e-001
 -1.3796881e-001
 -1.1440897e-001
 -8.9943439e-002
 -6.7943978e-002
 -5.1834875e-002
 -4.3759089e-002
 -4.3736403e-002
 -4.9659494e-002
 -5.8095515e-002
 -6.5528591e-002
 -6.9541908e-002
 -6.9515644e-002
 -6.6628815e-002
 -6.3205099e-002
 -6.1667840e-002
 -6.3508969e-002
 -6.8671914e-002
 -7.5580218e-002
 -8.1773234e-002
 -8.4863974e-002
 -8.3427593e-002
 -7.7496010e-002
 -6.8516953e-002
 -5.8836112e-002
 -5.0905878e-002
 -4.6492726e-002
 -4.6150912e-002
 -4.9142611e-002
 -5.3812070e-002
 -5.8227594e-002
 -6.0805521e-002
 -6.0690675e-002
 -5.7836347e-002
 -5.2877443e-002
 -4.6926399e-002
 -4.1345577e-002
 -3.7458585e-002
 -3.6164151e-002
 -3.7527046e-002
 -4.0541538e-002
 -4.3265489e-002
 -4.3371138e-002
 -3.8940605e-002
 -2.9188180e-002
 -1.4801928e-002
  2.2472617e-003
  1.9361474e-002
  3.4181951e-002
  4.5328069e-002
  5.2721531e-002
  5.7378799e-002
  6.0787701e-002
  6.4177622e-002
  6.8039825e-002
  7.2112567e-002
  7.5783567e-002
  7.8632143e-002
  8.0773701e-002
  8.2811454e-002
  8.5447125e-002
  8.9000973e-002
  9.3135289e-002
  9.6958482e-002
  9.9483553e-002
  1.0022794e-001
  9.9655050e-002
  9.9208346e-002
  1.0085934e-001
  1.0632043e-001
  1.1626564e-001
  1.2994924e-001
  1.4544956e-001
  1.6044638e-001
  1.7313980e-001
  1.8283208e-001
  1.8989351e-001
  1.9519985e-001
  1.9942569e-001
  2.0261913e-001
  2.0426197e-001
  2.0370484e-001
  2.0066142e-001
  1.9545081e-001
  1.8885279e-001
  1.8166963e-001
  1.7425371e-001
  1.6628022e-001
  1.5690374e-001
  1.4521372e-001
  1.3073632e-001
  1.1372079e-001
  9.5089212e-002
  7.6116544e-002
  5.8039965e-002
  4.1811571e-002
  2.8101326e-002
  1.7478732e-002
  1.0560359e-002
  7.9158834e-003
  9.6996671e-003
  1.5214153e-002
  2.2745209e-002
  2.9919273e-002
  3.4543350e-002
  3.5570763e-002
  3.3696029e-002
  3.1223678e-002
  3.1201016e-002
  3.6155106e-002
  4.6952960e-002
  6.2255209e-002
  7.8807274e-002
  9.2495186e-002
  9.9783001e-002
  9.8964896e-002
  9.0715526e-002
  7.7716138e-002
  6.3536546e-002
  5.1260224e-002
  4.2411527e-002
  3.6577917e-002
  3.1817973e-002
  2.5639221e-002
  1.6126891e-002
  2.7685290e-003
 -1.3343126e-002
 -2.9987038e-002
 -4.4746014e-002
 -5.5979529e-002
 -6.3408749e-002
 -6.8058230e-002
 -7.1587371e-002
 -7.5322767e-002
 -7.9445687e-002
 -8.2733129e-002
 -8.3017019e-002
 -7.8202770e-002
 -6.7405863e-002
 -5.1661912e-002
 -3.3822214e-002
 -1.7612038e-002
 -6.2242921e-003
 -1.0444933e-003
 -1.0525596e-003
 -3.1666367e-003
 -3.4197463e-003
  1.4655650e-003
  1.2712214e-002
  2.8897479e-002
  4.6426590e-002
  6.0931293e-002
  6.9040275e-002
  6.9777767e-002
  6.4990661e-002
  5.8621058e-002
  5.5131319e-002
  5.7733453e-002
  6.7140100e-002
  8.1329289e-002
  9.6396146e-002
  1.0811962e-001
  1.1358464e-001
  1.1219317e-001
  1.0567714e-001
  9.7170701e-002
  8.9808796e-002
  8.5496734e-002
  8.4360343e-002
  8.5020363e-002
  8.5442254e-002
  8.3889970e-002
  7.9547639e-002
  7.2617396e-002
  6.4004368e-002
  5.4883399e-002
  4.6404942e-002
  3.9595211e-002
  3.5316985e-002
  3.4134386e-002
  3.6066688e-002
  4.0384885e-002
  4.5653631e-002
  5.0110672e-002
  5.2289014e-002
  5.1645651e-002
  4.8929532e-002
  4.6093799e-002
  4.5707392e-002
  5.0030114e-002
  6.0125287e-002
  7.5464186e-002
  9.4300978e-002
  1.1469494e-001
  1.3565512e-001
  1.5775712e-001
  1.8284070e-001
  2.1289594e-001
  2.4869770e-001
  2.8891082e-001
  3.3018861e-001
  3.6832914e-001
  4.0005065e-001
  4.2463497e-001
  4.4472370e-001
  4.6592927e-001
  4.9545264e-001
  5.4030184e-001
  6.0578055e-001
  6.9466522e-001
  8.0710089e-001
  9.4095091e-001
  1.0922625e+000
  1.2556342e+000
  1.4244862e+000
  1.5914166e+000
  1.7488600e+000
  1.8900708e+000
  2.0100869e+000
  2.1060348e+000
  2.1762145e+000
  2.2179708e+000
  2.2251938e+000
  2.1868926e+000
  2.0881814e+000
  1.9140678e+000
  1.6550248e+000
  1.3121861e+000
  8.9979474e-001
  4.4347679e-001
