 -8.6049247e-002
 -8.8362247e-002
 -8.6061801e-002
 -8.1073668e-002
 -7.5462656e-002
 -7.1100539e-002
 -6.9329781e-002
 -7.0701238e-002
 -7.4873035e-002
 -8.0722389e-002
 -8.6655444e-002
 -9.1039845e-002
 -9.2656559e-002
 -9.1062928e-002
 -8.6761335e-002
 -8.1088476e-002
 -7.5809530e-002
 -7.2520388e-002
 -7.2071476e-002
 -7.4247961e-002
 -7.7843324e-002
 -8.1097282e-002
 -8.2323917e-002
 -8.0495155e-002
 -7.5580078e-002
 -6.8541327e-002
 -6.1008116e-002
 -5.4742873e-002
 -5.1076576e-002
 -5.0495239e-002
 -5.2506913e-002
 -5.5817305e-002
 -5.8736810e-002
 -5.9681124e-002
 -5.7624295e-002
 -5.2391859e-002
 -4.4718381e-002
 -3.6043536e-002
 -2.8095776e-002
 -2.2392152e-002
 -1.9818731e-002
 -2.0421452e-002
 -2.3454885e-002
 -2.7653785e-002
 -3.1638936e-002
 -3.4342529e-002
 -3.5329470e-002
 -3.4905221e-002
 -3.3955121e-002
 -3.3556902e-002
 -3.4513041e-002
 -3.7002176e-002
 -4.0507651e-002
 -4.4062138e-002
 -4.6709151e-002
 -4.7983385e-002
 -4.8189168e-002
 -4.8327983e-002
 -4.9678561e-002
 -5.3203117e-002
 -5.9051199e-002
 -6.6399984e-002
 -7.3719264e-002
 -7.9355437e-002
 -8.2185396e-002
 -8.2061752e-002
 -7.9860857e-002
 -7.7110827e-002
 -7.5352014e-002
 -7.5497037e-002
 -7.7458133e-002
 -8.0190956e-002
 -8.2122471e-002
 -8.1774369e-002
 -7.8329205e-002
 -7.1928558e-002
 -6.3609574e-002
 -5.4927749e-002
 -4.7428169e-002
 -4.2172260e-002
 -3.9484388e-002
 -3.8973933e-002
 -3.9770361e-002
 -4.0842834e-002
 -4.1290094e-002
 -4.0551706e-002
 -3.8542562e-002
 -3.5706080e-002
 -3.2941812e-002
 -3.1359422e-002
 -3.1885379e-002
 -3.4864930e-002
 -3.9865328e-002
 -4.5821403e-002
 -5.1487057e-002
 -5.5972656e-002
 -5.9082017e-002
 -6.1265122e-002
 -6.3217910e-002
 -6.5362372e-002
 -6.7511007e-002
 -6.8916906e-002
 -6.8690219e-002
 -6.6348157e-002
 -6.2183619e-002
 -5.7235288e-002
 -5.2860234e-002
 -5.0121175e-002
 -4.9291168e-002
 -4.9714293e-002
 -5.0091694e-002
 -4.9076205e-002
 -4.5927162e-002
 -4.0937825e-002
 -3.5419029e-002
 -3.1202546e-002
 -2.9860857e-002
 -3.2007593e-002
 -3.7026665e-002
 -4.3362970e-002
 -4.9214182e-002
 -5.3268074e-002
 -5.5140010e-002
 -5.5353081e-002
 -5.4940778e-002
 -5.4904563e-002
 -5.5770144e-002
 -5.7397003e-002
 -5.9082958e-002
 -5.9911805e-002
 -5.9215908e-002
 -5.6967968e-002
 -5.3911199e-002
 -5.1325611e-002
 -5.0499681e-002
 -5.2145014e-002
 -5.6044518e-002
 -6.1113924e-002
 -6.5842576e-002
 -6.8890143e-002
 -6.9559575e-002
 -6.7962619e-002
 -6.4864357e-002
 -6.1324767e-002
 -5.8291537e-002
 -5.6268358e-002
 -5.5141916e-002
 -5.4212615e-002
 -5.2420124e-002
 -4.8688657e-002
 -4.2275584e-002
 -3.3017242e-002
 -2.1410530e-002
 -8.5122606e-003
  4.3301949e-003
  1.5866034e-002
  2.5344134e-002
  3.2791836e-002
  3.9041422e-002
  4.5455756e-002
  5.3428147e-002
  6.3843764e-002
  7.6726178e-002
  9.1221284e-002
  1.0592426e-001
  1.1941062e-001
  1.3075534e-001
  1.3983475e-001
  1.4729280e-001
  1.5419352e-001
  1.6152988e-001
  1.6983748e-001
  1.7910088e-001
  1.8896019e-001
  1.9904436e-001
  2.0920057e-001
  2.1948615e-001
  2.2995831e-001
  2.4042203e-001
  2.5030862e-001
  2.5877074e-001
  2.6495892e-001
  2.6835926e-001
  2.6904812e-001
  2.6775384e-001
  2.6568614e-001
  2.6417973e-001
  2.6426810e-001
  2.6632597e-001
  2.6988740e-001
  2.7369121e-001
  2.7596061e-001
  2.7488724e-001
  2.6923132e-001
  2.5886447e-001
  2.4502833e-001
  2.3013484e-001
  2.1710566e-001
  2.0845854e-001
  2.0547919e-001
  2.0780021e-001
  2.1355451e-001
  2.2004851e-001
  2.2469905e-001
  2.2587712e-001
  2.2334568e-001
  2.1815218e-001
  2.1206361e-001
  2.0681258e-001
  2.0347974e-001
  2.0224445e-001
  2.0253463e-001
  2.0340394e-001
  2.0388249e-001
  2.0313599e-001
  2.0045120e-001
  1.9519396e-001
  1.8686689e-001
  1.7526827e-001
  1.6064138e-001
  1.4369191e-001
  1.2543170e-001
  1.0690958e-001
  8.8946029e-002
  7.1973164e-002
  5.6015157e-002
  4.0771821e-002
  2.5733948e-002
  1.0282803e-002
 -6.2158231e-003
 -2.4277049e-002
 -4.4105507e-002
 -6.5406574e-002
 -8.7310877e-002
 -1.0849514e-001
 -1.2749260e-001
 -1.4310070e-001
 -1.5475971e-001
 -1.6278657e-001
 -1.6837299e-001
 -1.7329537e-001
 -1.7936237e-001
 -1.8774700e-001
 -1.9845987e-001
 -2.1023159e-001
 -2.2093502e-001
 -2.2843278e-001
 -2.3150730e-001
 -2.3045280e-001
 -2.2703681e-001
 -2.2381583e-001
 -2.2308243e-001
 -2.2589494e-001
 -2.3161927e-001
 -2.3819978e-001
 -2.4305937e-001
 -2.4424339e-001
 -2.4130480e-001
 -2.3554374e-001
 -2.2950881e-001
 -2.2599001e-001
 -2.2693031e-001
 -2.3268455e-001
 -2.4189166e-001
 -2.5198396e-001
 -2.6012370e-001
 -2.6420790e-001
 -2.6357163e-001
 -2.5915215e-001
 -2.5308966e-001
 -2.4793694e-001
 -2.4576424e-001
 -2.4746126e-001
 -2.5246548e-001
 -2.5900186e-001
 -2.6473982e-001
 -2.6762086e-001
 -2.6655211e-001
 -2.6172541e-001
 -2.5447842e-001
 -2.4678748e-001
 -2.4059665e-001
 -2.3721695e-001
 -2.3698836e-001
 -2.3929999e-001
 -2.4292511e-001
 -2.4648746e-001
 -2.4882082e-001
 -2.4906966e-001
 -2.4656568e-001
 -2.4067048e-001
 -2.3078304e-001
 -2.1656145e-001
 -1.9820439e-001
 -1.7652914e-001
 -1.5266873e-001
 -1.2746748e-001
 -1.0091469e-001
 -7.2017382e-002
 -3.9289720e-002
 -1.6575906e-003
  4.0710391e-002
  8.6141741e-002
  1.3198501e-001
  1.7572950e-001
  2.1622174e-001
  2.5444293e-001
  2.9355148e-001
  3.3825822e-001
  3.9387653e-001
  4.6544453e-001
  5.5716329e-001
  6.7214871e-001
  8.1229370e-001
  9.7799353e-001
  1.1676340e+000
  1.3770083e+000
  1.5990560e+000
  1.8243427e+000
  2.0424599e+000
  2.2440797e+000
  2.4229576e+000
  2.5769890e+000
  2.7076690e+000
  2.8179386e+000
  2.9091721e+000
  2.9785802e+000
  3.0182955e+000
  3.0168151e+000
  2.9625229e+000
  2.8480809e+000
  2.6739684e+000
  2.4496647e+000
  2.1919043e+000
  1.9206828e+000
  1.6546126e+000
  1.4073342e+000
  1.1860049e+000
  9.9186473e-001
  8.2210602e-001
  6.7206122e-001
  5.3700870e-001
  4.1334318e-001
  2.9915718e-001
  1.9434048e-001
  1.0024182e-001
  1.8921955e-002
 -4.7871428e-002
 -9.9717968e-002
 -1.3815300e-001
 -1.6662083e-001
 -1.8971816e-001
 -2.1199718e-001
 -2.3678575e-001
 -2.6544826e-001
 -2.9729169e-001
 -3.3005804e-001
 -3.6076660e-001
 -3.8660822e-001
 -4.0561011e-001
 -4.1686968e-001
 -4.2031882e-001
 -4.1620132e-001
 -4.0460968e-001
 -3.8540188e-001
 -3.5858289e-001
 -3.2492410e-001
 -2.8641432e-001
 -2.4621368e-001
 -2.0806286e-001
 -1.7539239e-001
 -1.5050631e-001
 -1.3414318e-001
 -1.2552774e-001
 -1.2283123e-001
 -1.2383179e-001
 -1.2653537e-001
 -1.2957609e-001
 -1.3232218e-001
 -1.3472222e-001
 -1.3700310e-001
 -1.3936826e-001
 -1.4183231e-001
 -1.4425178e-001
 -1.4648990e-001
 -1.4856443e-001
 -1.5064797e-001
 -1.5291286e-001
 -1.5533637e-001
 -1.5760930e-001
 -1.5921127e-001
 -1.5960090e-001
 -1.5840443e-001
 -1.5550799e-001
 -1.5103996e-001
 -1.4530641e-001
 -1.3875984e-001
 -1.3202503e-001
 -1.2591311e-001
 -1.2130576e-001
 -1.1885248e-001
 -1.1858027e-001
 -1.1965155e-001
 -1.2049781e-001
 -1.1937318e-001
 -1.1512084e-001
 -1.0778370e-001
 -9.8726895e-002
 -9.0157973e-002
 -8.4217226e-002
 -8.2021195e-002
 -8.3083499e-002
 -8.5393650e-002
 -8.6164066e-002
 -8.2964894e-002
 -7.4778605e-002
 -6.2514424e-002
 -4.8741014e-002
 -3.6737385e-002
 -2.9265758e-002
 -2.7584103e-002
 -3.1089676e-002
 -3.7694146e-002
 -4.4721420e-002
 -4.9925272e-002
 -5.2214557e-002
 -5.1835751e-002
 -5.0012608e-002
 -4.8267630e-002
 -4.7753533e-002
 -4.8865751e-002
 -5.1230201e-002
 -5.3970962e-002
 -5.6068359e-002
 -5.6652040e-002
 -5.5175341e-002
 -5.1493747e-002
 -4.5876588e-002
 -3.8945785e-002
 -3.1518635e-002
 -2.4367040e-002
 -1.7971722e-002
 -1.2389618e-002
 -7.3208560e-003
 -2.3646840e-003
  2.6563868e-003
  7.4833874e-003
  1.1459924e-002
  1.3834478e-002
  1.4181736e-002
  1.2716751e-002
  1.0323340e-002
  8.2654299e-003
  7.7100583e-003
  9.2808286e-003
  1.2842869e-002
  1.7607153e-002
  2.2489105e-002
  2.6540948e-002
  2.9258843e-002
  3.0649676e-002
  3.1075832e-002
  3.1000835e-002
  3.0777250e-002
  3.0554641e-002
  3.0301960e-002
  2.9897190e-002
  2.9242078e-002
  2.8370747e-002
  2.7512067e-002
  2.7057231e-002
  2.7411504e-002
  2.8774957e-002
  3.0960310e-002
  3.3368827e-002
  3.5189738e-002
  3.5783613e-002
  3.5097514e-002
  3.3896446e-002
  3.3635536e-002
  3.5951180e-002
  4.1953796e-002
  5.1642995e-002
  6.3742011e-002
  7.6062496e-002
  8.6265218e-002
  9.2706140e-002
  9.5023935e-002
  9.4233192e-002
  9.2289740e-002
  9.1313809e-002
  9.2797587e-002
  9.7115276e-002
  1.0350270e-001
  1.1046334e-001
  1.1639054e-001
  1.2013961e-001
  1.2135286e-001
  1.2048752e-001
  1.1862641e-001
  1.1718653e-001
  1.1759187e-001
  1.2093061e-001
  1.2764308e-001
  1.3735396e-001
  1.4897101e-001
  1.6106790e-001
  1.7240824e-001
  1.8237393e-001
  1.9110826e-001
  1.9933763e-001
  2.0799181e-001
  2.1781412e-001
  2.2912264e-001
  2.4178990e-001
  2.5540368e-001
  2.6949804e-001
  2.8372752e-001
  2.9790546e-001
  3.1191821e-001
  3.2560360e-001
  3.3869438e-001
  3.5086932e-001
  3.6187642e-001
  3.7165548e-001
  3.8040985e-001
  3.8862097e-001
  3.9701391e-001
  4.0645702e-001
  4.1776504e-001
  4.3141769e-001
  4.4729106e-001
  4.6455065e-001
  4.8181292e-001
  4.9755750e-001
  5.1063725e-001
  5.2067006e-001
  5.2814315e-001
  5.3419676e-001
  5.4020030e-001
  5.4730303e-001
  5.5610368e-001
  5.6649641e-001
  5.7769267e-001
  5.8841130e-001
  5.9722654e-001
  6.0301906e-001
  6.0540282e-001
  6.0496167e-001
  6.0317135e-001
  6.0199936e-001
  6.0330717e-001
  6.0826247e-001
  6.1697580e-001
  6.2850643e-001
  6.4125301e-001
  6.5359105e-001
  6.6450694e-001
  6.7396690e-001
  6.8286194e-001
  6.9254729e-001
  7.0417576e-001
  7.1812801e-001
  7.3380330e-001
  7.4985382e-001
  7.6471614e-001
  7.7715134e-001
  7.8653856e-001
  7.9284603e-001
  7.9640365e-001
  7.9768569e-001
  7.9723673e-001
  7.9570976e-001
  7.9386916e-001
  7.9243556e-001
  7.9179263e-001
  7.9171785e-001
  7.9132571e-001
  7.8930484e-001
  7.8437313e-001
  7.7576738e-001
  7.6357304e-001
  7.4876999e-001
  7.3297554e-001
  7.1796491e-001
  7.0512053e-001
  6.9498979e-001
  6.8710423e-001
  6.8012836e-001
  6.7228924e-001
  6.6193708e-001
  6.4804453e-001
  6.3047727e-001
  6.0994937e-001
  5.8769164e-001
  5.6497292e-001
  5.4267242e-001
  5.2106890e-001
  4.9990440e-001
  4.7865542e-001
  4.5686575e-001
  4.3438749e-001
  4.1143346e-001
  3.8843865e-001
  3.6582479e-001
  3.4381289e-001
  3.2240036e-001
  3.0151428e-001
  2.8122924e-001
  2.6188106e-001
  2.4396979e-001
  2.2789567e-001
  2.1370276e-001
  2.0101340e-001
  1.8920860e-001
  1.7773415e-001
  1.6632004e-001
  1.5496067e-001
  1.4367585e-001
  1.3223358e-001
  1.2004954e-001
  1.0636331e-001
  9.0608833e-002
  7.2768728e-002
  5.3509756e-002
  3.4025489e-002
  1.5669927e-002
 -4.4756669e-004
 -1.3752356e-002
 -2.4302865e-002
 -3.2696893e-002
 -3.9836417e-002
 -4.6630980e-002
 -5.3728637e-002
 -6.1344253e-002
 -6.9214939e-002
 -7.6676317e-002
 -8.2837563e-002
 -8.6829310e-002
 -8.8086159e-002
 -8.6598374e-002
 -8.3043817e-002
 -7.8721232e-002
 -7.5263688e-002
 -7.4197388e-002
 -7.6484433e-002
 -8.2211693e-002
 -9.0549154e-002
 -1.0001128e-001
 -1.0894252e-001
 -1.1605593e-001
 -1.2082815e-001
 -1.2361364e-001
 -1.2545825e-001
 -1.2770368e-001
 -1.3152953e-001
 -1.3756867e-001
 -1.4568658e-001
 -1.5496953e-001
 -1.6393154e-001
 -1.7091099e-001
 -1.7457547e-001
 -1.7439254e-001
 -1.7088712e-001
 -1.6553731e-001
 -1.6028431e-001
 -1.5681428e-001
 -1.5591086e-001
 -1.5717601e-001
 -1.5925295e-001
 -1.6044644e-001
 -1.5946146e-001
 -1.5595560e-001
 -1.5070685e-001
 -1.4535555e-001
 -1.4181988e-001
 -1.4158715e-001
 -1.4513878e-001
 -1.5174451e-001
 -1.5973143e-001
 -1.6712645e-001
 -1.7239022e-001
 -1.7492008e-001
 -1.7512629e-001
 -1.7410222e-001
 -1.7308685e-001
 -1.7297296e-001
 -1.7404204e-001
 -1.7597158e-001
 -1.7804349e-001
 -1.7943235e-001
 -1.7946843e-001
 -1.7781727e-001
 -1.7455902e-001
 -1.7016928e-001
 -1.6540481e-001
 -1.6110421e-001
 -1.5794514e-001
 -1.5624129e-001
 -1.5587187e-001
 -1.5638283e-001
 -1.5720837e-001
 -1.5789468e-001
 -1.5821300e-001
 -1.5811880e-001
 -1.5760068e-001
 -1.5652094e-001
 -1.5455849e-001
 -1.5132179e-001
 -1.4660886e-001
 -1.4068257e-001
 -1.3437057e-001
 -1.2885517e-001
 -1.2518951e-001
 -1.2376492e-001
 -1.2402876e-001
 -1.2464670e-001
 -1.2407164e-001
 -1.2126508e-001
 -1.1623744e-001
 -1.1015938e-001
 -1.0498066e-001
 -1.0268705e-001
 -1.0447404e-001
 -1.1017801e-001
 -1.1823611e-001
 -1.2623454e-001
 -1.3182867e-001
 -1.3362787e-001
 -1.3165285e-001
 -1.2719302e-001
 -1.2218952e-001
 -1.1847221e-001
 -1.1718173e-001
 -1.1853906e-001
 -1.2192177e-001
 -1.2609838e-001
 -1.2949305e-001
 -1.3044059e-001
 -1.2746452e-001
 -1.1961943e-001
 -1.0687158e-001
 -9.0382782e-002
 -7.2487203e-002
 -5.6197869e-002
 -4.4276910e-002
 -3.8172062e-002
 -3.7299699e-002
 -3.9097098e-002
 -3.9951479e-002
 -3.6680556e-002
 -2.7927318e-002
 -1.4833495e-002
 -6.8853920e-004
  1.0265853e-002
  1.4326882e-002
  9.5000435e-003
 -4.0406889e-003
 -2.4229577e-002
 -4.7868073e-002
 -7.1519932e-002
 -9.2274570e-002
 -1.0825629e-001
 -1.1886838e-001
 -1.2479400e-001
 -1.2775562e-001
 -1.3002800e-001
 -1.3375927e-001
 -1.4026638e-001
 -1.4955390e-001
 -1.6027110e-001
 -1.7015726e-001
 -1.7681046e-001
 -1.7847500e-001
 -1.7455713e-001
 -1.6572622e-001
 -1.5364306e-001
 -1.4047957e-001
 -1.2841123e-001
 -1.1919991e-001
 -1.1390913e-001
 -1.1275636e-001
 -1.1511234e-001
 -1.1966527e-001
 -1.2474400e-001
 -1.2874177e-001
 -1.3053406e-001
 -1.2977502e-001
 -1.2698841e-001
 -1.2342131e-001
 -1.2068676e-001
 -1.2027892e-001
 -1.2308923e-001
 -1.2906475e-001
 -1.3712321e-001
 -1.4538203e-001
 -1.5167624e-001
 -1.5423605e-001
 -1.5230053e-001
 -1.4641947e-001
 -1.3828673e-001
 -1.3013446e-001
 -1.2391445e-001
 -1.2059737e-001
 -1.1987319e-001
 -1.2036214e-001
 -1.2023404e-001
 -1.1797648e-001
 -1.1300113e-001
 -1.0584883e-001
 -9.7927855e-002
 -9.0927506e-002
 -8.6186539e-002
 -8.4289366e-002
 -8.5023846e-002
 -8.7650262e-002
 -9.1302586e-002
 -9.5321500e-002
 -9.9389370e-002
 -1.0344645e-001
 -1.0746251e-001
 -1.1119356e-001
 -1.1406491e-001
 -1.1528631e-001
 -1.1421116e-001
 -1.1081166e-001
 -1.0601527e-001
 -1.0163133e-001
 -9.9755033e-002
 -1.0182420e-001
 -1.0776450e-001
 -1.1570647e-001
 -1.2252447e-001
 -1.2504316e-001
 -1.2140589e-001
 -1.1199076e-001
 -9.9441395e-002
 -8.7752786e-002
 -8.0750328e-002
 -8.0565612e-002
 -8.6745543e-002
 -9.6399493e-002
 -1.0535681e-001
 -1.0984826e-001
 -1.0797135e-001
 -1.0030427e-001
 -8.9455525e-002
 -7.8843890e-002
 -7.1325342e-002
 -6.8270792e-002
 -6.9403062e-002
 -7.3310623e-002
 -7.8274064e-002
 -8.2984189e-002
 -8.6882957e-002
 -9.0103143e-002
 -9.3175409e-002
 -9.6719785e-002
 -1.0124834e-001
 -1.0707122e-001
 -1.1423249e-001
 -1.2244616e-001
 -1.3109145e-001
 -1.3934865e-001
 -1.4647090e-001
 -1.5206493e-001
 -1.5621526e-001
 -1.5937716e-001
 -1.6211154e-001
 -1.6482117e-001
 -1.6761803e-001
 -1.7034748e-001
 -1.7270069e-001
 -1.7432353e-001
 -1.7487728e-001
 -1.7407527e-001
 -1.7174851e-001
 -1.6795895e-001
 -1.6311300e-001
 -1.5798916e-001
 -1.5361402e-001
 -1.5098863e-001
 -1.5074351e-001
 -1.5284831e-001
 -1.5650300e-001
 -1.6029194e-001
 -1.6259961e-001
 -1.6217861e-001
 -1.5866296e-001
 -1.5279192e-001
 -1.4620104e-001
 -1.4082984e-001
 -1.3819132e-001
 -1.3882722e-001
 -1.4218219e-001
 -1.4692524e-001
 -1.5154228e-001
 -1.5492171e-001
 -1.5669085e-001
 -1.5719992e-001
 -1.5721455e-001
 -1.5749479e-001
 -1.5846686e-001
 -1.6013135e-001
 -1.6222199e-001
 -1.6449283e-001
 -1.6694094e-001
 -1.6981553e-001
 -1.7339999e-001
 -1.7769770e-001
 -1.8221898e-001
 -1.8601829e-001
 -1.8800137e-001
 -1.8737911e-001
 -1.8405798e-001
 -1.7876427e-001
 -1.7280714e-001
 -1.6755680e-001
 -1.6387164e-001
 -1.6175760e-001
 -1.6043999e-001
 -1.5881727e-001
 -1.5606175e-001
 -1.5205311e-001
 -1.4742916e-001
 -1.4325882e-001
 -1.4054468e-001
 -1.3982203e-001
 -1.4102320e-001
 -1.4361443e-001
 -1.4688897e-001
 -1.5025978e-001
 -1.5342729e-001
 -1.5637668e-001
 -1.5924877e-001
 -1.6218179e-001
 -1.6520859e-001
 -1.6823246e-001
 -1.7104927e-001
 -1.7337658e-001
 -1.7488533e-001
 -1.7526316e-001
 -1.7432912e-001
 -1.7217072e-001
 -1.6922587e-001
 -1.6623033e-001
 -1.6400975e-001
 -1.6318253e-001
 -1.6390134e-001
 -1.6576010e-001
 -1.6792892e-001
 -1.6947955e-001
 -1.6977188e-001
 -1.6873522e-001
 -1.6692095e-001
 -1.6530272e-001
 -1.6490326e-001
 -1.6638969e-001
 -1.6978892e-001
 -1.7443255e-001
 -1.7915452e-001
 -1.8266107e-001
 -1.8392443e-001
 -1.8246381e-001
 -1.7845350e-001
 -1.7267396e-001
 -1.6634664e-001
 -1.6087711e-001
 -1.5752770e-001
 -1.5707701e-001
 -1.5957118e-001
 -1.6427534e-001
 -1.6987370e-001
 -1.7487137e-001
 -1.7806740e-001
 -1.7892845e-001
 -1.7771910e-001
 -1.7534286e-001
 -1.7297886e-001
 -1.7168785e-001
 -1.7214831e-001
 -1.7458026e-001
 -1.7879263e-001
 -1.8424286e-001
 -1.9006097e-001
 -1.9510941e-001
 -1.9819812e-001
 -1.9847909e-001
 -1.9586961e-001
 -1.9125229e-001
 -1.8627396e-001
 -1.8277387e-001
 -1.8207377e-001
 -1.8443865e-001
 -1.8894054e-001
 -1.9378749e-001
 -1.9699473e-001
 -1.9714068e-001
 -1.9390887e-001
 -1.8819083e-001
 -1.8170016e-001
 -1.7626036e-001
 -1.7308027e-001
 -1.7233448e-001
 -1.7321046e-001
 -1.7435273e-001
 -1.7446445e-001
 -1.7280575e-001
 -1.6943253e-001
 -1.6515043e-001
 -1.6123843e-001
 -1.5902708e-001
 -1.5943954e-001
 -1.6263247e-001
 -1.6787816e-001
 -1.7377157e-001
 -1.7872553e-001
 -1.8157980e-001
 -1.8206829e-001
 -1.8091923e-001
 -1.7951104e-001
 -1.7921497e-001
 -1.8072384e-001
 -1.8369603e-001
 -1.8690061e-001
 -1.8880102e-001
 -1.8829056e-001
 -1.8521458e-001
 -1.8042524e-001
 -1.7535782e-001
 -1.7136100e-001
 -1.6912289e-001
 -1.6845697e-001
 -1.6850274e-001
 -1.6818513e-001
 -1.6668243e-001
 -1.6370698e-001
 -1.5953498e-001
 -1.5483832e-001
 -1.5042204e-001
 -1.4696566e-001
 -1.4483557e-001
 -1.4400664e-001
 -1.4411211e-001
 -1.4461644e-001
 -1.4506216e-001
 -1.4529112e-001
 -1.4552083e-001
 -1.4620539e-001
 -1.4772481e-001
 -1.5006905e-001
 -1.5272398e-001
 -1.5486895e-001
 -1.5580242e-001
 -1.5535471e-001
 -1.5404290e-001
 -1.5287576e-001
 -1.5291576e-001
 -1.5481695e-001
 -1.5853272e-001
 -1.6328118e-001
 -1.6776013e-001
 -1.7055383e-001
 -1.7063582e-001
 -1.6781391e-001
 -1.6291907e-001
 -1.5758607e-001
 -1.5364772e-001
 -1.5239102e-001
 -1.5404384e-001
 -1.5775930e-001
 -1.6208904e-001
 -1.6566998e-001
 -1.6776469e-001
 -1.6841822e-001
 -1.6822167e-001
 -1.6786864e-001
 -1.6776734e-001
 -1.6790822e-001
 -1.6802660e-001
 -1.6792687e-001
 -1.6774467e-001
 -1.6796875e-001
 -1.6920008e-001
 -1.7179196e-001
 -1.7558079e-001
 -1.7985075e-001
 -1.8353941e-001
 -1.8558221e-001
 -1.8525892e-001
 -1.8242948e-001
 -1.7758942e-001
 -1.7171623e-001
 -1.6592811e-001
 -1.6104986e-001
 -1.5725529e-001
 -1.5396636e-001
 -1.5009172e-001
 -1.4451667e-001
 -1.3661619e-001
 -1.2654491e-001
 -1.1517437e-001
 -1.0372611e-001
 -9.3288842e-002
 -8.4438928e-002
 -7.7106693e-002
 -7.0705000e-002
 -6.4428807e-002
 -5.7586398e-002
 -4.9836392e-002
 -4.1259233e-002
 -3.2258583e-002
 -2.3342128e-002
 -1.4863810e-002
 -6.8221251e-003
  1.2027874e-003
  9.9372353e-003
  2.0164466e-002
  3.2438511e-002
  4.6877447e-002
  6.3109340e-002
  8.0372421e-002
  9.7715180e-002
  1.1422566e-001
  1.2923009e-001
  1.4241564e-001
  1.5384795e-001
  1.6388098e-001
  1.7299213e-001
  1.8159961e-001
  1.8991971e-001
  1.9790327e-001
  2.0526170e-001
  2.1156298e-001
  2.1635614e-001
  2.1928385e-001
  2.2016480e-001
  2.1905377e-001
  2.1628945e-001
  2.1251133e-001
  2.0859224e-001
  2.0543880e-001
  2.0368029e-001
  2.0336440e-001
  2.0383218e-001
  2.0389365e-001
  2.0227938e-001
  1.9818526e-001
  1.9165493e-001
  1.8360674e-001
  1.7547906e-001
  1.6865379e-001
  1.6392288e-001
  1.6123080e-001
  1.5977727e-001
  1.5838536e-001
  1.5593641e-001
  1.5169554e-001
  1.4545835e-001
  1.3754441e-001
  1.2868318e-001
  1.1981063e-001
  1.1179013e-001
  1.0511525e-001
  9.9701703e-002
  9.4870158e-002
  8.9549317e-002
  8.2630466e-002
  7.3334810e-002
  6.1448479e-002
  4.7341211e-002
  3.1782138e-002
  1.5646780e-002
 -3.6602242e-004
 -1.5917709e-002
 -3.1074491e-002
 -4.6214750e-002
 -6.1830884e-002
 -7.8286784e-002
 -9.5623104e-002
 -1.1350976e-001
 -1.3139565e-001
 -1.4880179e-001
 -1.6560232e-001
 -1.8211355e-001
 -1.9890125e-001
 -2.1637837e-001
 -2.3440265e-001
 -2.5210658e-001
 -2.6808464e-001
 -2.8088707e-001
 -2.8961677e-001
 -2.9436141e-001
 -2.9624084e-001
 -2.9700080e-001
 -2.9829263e-001
 -3.0095584e-001
 -3.0465785e-001
 -3.0809065e-001
 -3.0964421e-001
 -3.0823149e-001
 -3.0387103e-001
 -2.9776596e-001
 -2.9186317e-001
 -2.8810549e-001
 -2.8770813e-001
 -2.9076108e-001
 -2.9630257e-001
 -3.0279465e-001
 -3.0876061e-001
 -3.1329462e-001
 -3.1624529e-001
 -3.1805466e-001
 -3.1940154e-001
 -3.2085834e-001
 -3.2269751e-001
 -3.2484925e-001
 -3.2693174e-001
 -3.2830272e-001
 -3.2816288e-001
 -3.2576976e-001
 -3.2074785e-001
 -3.1336329e-001
 -3.0458378e-001
 -2.9583110e-001
 -2.8850727e-001
 -2.8351552e-001
 -2.8100690e-001
 -2.8046168e-001
 -2.8104006e-001
 -2.8200773e-001
 -2.8302002e-001
 -2.8413331e-001
 -2.8555300e-001
 -2.8725831e-001
 -2.8870867e-001
 -2.8880869e-001
 -2.8619145e-001
 -2.7971871e-001
 -2.6896500e-001
 -2.5442361e-001
 -2.3727752e-001
 -2.1878495e-001
 -1.9954257e-001
 -1.7899137e-001
 -1.5545044e-001
 -1.2673111e-001
 -9.1110754e-002
 -4.8261436e-002
  2.8521604e-004
  5.1392253e-002
  1.0126433e-001
  1.4677195e-001
  1.8667443e-001
  2.2231408e-001
  2.5759224e-001
  2.9832337e-001
  3.5124355e-001
  4.2296173e-001
  5.1903376e-001
  6.4320884e-001
  7.9682107e-001
  9.7830864e-001
  1.1829347e+000
  1.4029080e+000
  1.6281633e+000
  1.8479374e+000
  2.0529366e+000
  2.2374443e+000
  2.4004534e+000
  2.5450696e+000
  2.6760672e+000
  2.7963360e+000
  2.9036245e+000
  2.9890804e+000
  3.0385072e+000
  3.0361834e+000
  2.9699842e+000
  2.8359006e+000
  2.6401933e+000
  2.3983275e+000
  2.1311229e+000
  1.8596329e+000
  1.6006239e+000
  1.3640445e+000
  1.1528868e+000
  9.6489218e-001
  7.9507871e-001
  6.3813690e-001
  4.9014497e-001
  3.4946040e-001
  2.1685535e-001
  9.5004332e-002
 -1.2545790e-002
 -1.0269218e-001
 -1.7401302e-001
 -2.2751673e-001
 -2.6662157e-001
 -2.9634633e-001
 -3.2198331e-001
 -3.4772171e-001
 -3.7570610e-001
 -4.0583083e-001
 -4.3625991e-001
 -4.6436813e-001
 -4.8766956e-001
 -5.0438634e-001
 -5.1354504e-001
 -5.1473450e-001
 -5.0779925e-001
 -4.9272437e-001
 -4.6980427e-001
 -4.3996593e-001
 -4.0497473e-001
 -3.6730264e-001
 -3.2966309e-001
 -2.9445082e-001
 -2.6338501e-001
 -2.3750178e-001
 -2.1740499e-001
 -2.0353650e-001
 -1.9624753e-001
 -1.9560294e-001
 -2.0103132e-001
 -2.1105194e-001
 -2.2330639e-001
 -2.3498659e-001
 -2.4354272e-001
 -2.4739067e-001
 -2.4632772e-001
 -2.4150652e-001
 -2.3500130e-001
 -2.2911995e-001
 -2.2566070e-001
 -2.2533498e-001
 -2.2757537e-001
 -2.3085126e-001
 -2.3339403e-001
 -2.3399887e-001
 -2.3250006e-001
 -2.2969491e-001
 -2.2680736e-001
 -2.2482311e-001
 -2.2405499e-001
 -2.2412457e-001
 -2.2430424e-001
 -2.2399019e-001
 -2.2304455e-001
 -2.2184424e-001
 -2.2103377e-001
 -2.2111854e-001
 -2.2210043e-001
 -2.2333446e-001
 -2.2369343e-001
 -2.2200213e-001
 -2.1758195e-001
 -2.1066805e-001
 -2.0247121e-001
 -1.9478700e-001
 -1.8927422e-001
 -1.8672110e-001
 -1.8666596e-001
 -1.8758302e-001
 -1.8755779e-001
 -1.8512661e-001
 -1.7989404e-001
 -1.7268855e-001
 -1.6525268e-001
 -1.5963962e-001
 -1.5754021e-001
 -1.5972693e-001
 -1.6574147e-001
 -1.7390980e-001
 -1.8173209e-001
 -1.8662032e-001
 -1.8682032e-001
 -1.8220141e-001
 -1.7453313e-001
 -1.6699173e-001
 -1.6295144e-001
 -1.6448777e-001
 -1.7125065e-001
 -1.8030051e-001
 -1.8712207e-001
 -1.8747814e-001
 -1.7929659e-001
 -1.6367998e-001
 -1.4450905e-001
 -1.2680938e-001
 -1.1467762e-001
 -1.0975886e-001
 -1.1093103e-001
 -1.1520112e-001
 -1.1923558e-001
 -1.2073937e-001
 -1.1911600e-001
 -1.1529113e-001
 -1.1098606e-001
 -1.0789271e-001
 -1.0710412e-001
 -1.0892171e-001
 -1.1296054e-001
 -1.1839818e-001
 -1.2424155e-001
 -1.2954351e-001
 -1.3354326e-001
 -1.3573216e-001
 -1.3587369e-001
 -1.3402278e-001
 -1.3056911e-001
 -1.2625981e-001
 -1.2208922e-001
 -1.1896883e-001
 -1.1725063e-001
 -1.1637280e-001
 -1.1493534e-001
 -1.1129708e-001
 -1.0443826e-001
 -9.4619215e-002
 -8.3452074e-002
 -7.3323027e-002
 -6.6431957e-002
 -6.3872112e-002
 -6.5127425e-002
 -6.8194229e-002
 -7.0309245e-002
 -6.9033314e-002
 -6.3264749e-002
 -5.3728154e-002
 -4.2669477e-002
 -3.2850791e-002
 -2.6310872e-002
 -2.3510222e-002
 -2.3281863e-002
 -2.3556181e-002
 -2.2401044e-002
 -1.8793405e-002
 -1.2776493e-002
 -5.0577190e-003
  3.6124694e-003
  1.2900276e-002
  2.2953748e-002
  3.4067318e-002
  4.6162100e-002
  5.8425047e-002
  6.9392376e-002
  7.7522173e-002
  8.2002010e-002
  8.3351619e-002
  8.3427907e-002
  8.4723491e-002
  8.9238365e-002
  9.7477617e-002
  1.0810942e-001
  1.1850050e-001
  1.2590537e-001
  1.2875840e-001
  1.2746543e-001
  1.2432906e-001
  1.2264511e-001
  1.2537940e-001
  1.3399940e-001
  1.4793178e-001
  1.6482093e-001
  1.8143902e-001
  1.9488781e-001
  2.0367574e-001
  2.0831041e-001
  2.1117587e-001
  2.1567221e-001
  2.2487524e-001
  2.4022575e-001
  2.6082163e-001
  2.8366768e-001
  3.0481884e-001
  3.2094481e-001
  3.3065287e-001
  3.3501564e-001
  3.3709837e-001
  3.4070467e-001
  3.4887669e-001
  3.6276660e-001
  3.8131700e-001
  4.0183032e-001
  4.2112950e-001
  4.3678350e-001
  4.4789348e-001
  4.5518330e-001
  4.6046693e-001
  4.6580912e-001
  4.7275745e-001
  4.8191810e-001
  4.9295764e-001
  5.0493441e-001
  5.1676461e-001
  5.2763127e-001
  5.3721509e-001
  5.4571174e-001
  5.5366410e-001
  5.6168439e-001
  5.7017733e-001
  5.7919046e-001
  5.8847852e-001
  5.9776059e-001
  6.0701969e-001
  6.1664047e-001
  6.2726527e-001
  6.3942514e-001
  6.5314746e-001
  6.6776359e-001
  6.8203993e-001
  6.9459834e-001
  7.0445107e-001
  7.1141057e-001
  7.1618040e-001
  7.2007938e-001
  7.2452552e-001
  7.3051125e-001
  7.3827691e-001
  7.4726849e-001
  7.5633992e-001
  7.6409866e-001
  7.6929161e-001
  7.7114231e-001
  7.6956103e-001
  7.6516880e-001
  7.5911776e-001
  7.5274945e-001
  7.4719289e-001
  7.4303756e-001
  7.4019307e-001
  7.3796730e-001
  7.3530280e-001
  7.3106281e-001
  7.2427342e-001
  7.1428049e-001
  7.0082783e-001
  6.8408278e-001
  6.6462410e-001
  6.4338246e-001
  6.2150862e-001
  6.0015885e-001
  5.8022872e-001
  5.6211350e-001
  5.4559041e-001
  5.2988410e-001
  5.1390008e-001
  4.9654057e-001
  4.7700366e-001
  4.5501081e-001
  4.3095391e-001
  4.0594471e-001
  3.8169778e-001
  3.6016249e-001
  3.4290953e-001
  3.3044878e-001
  3.2178954e-001
  3.1452987e-001
  3.0555366e-001
  2.9212371e-001
  2.7294283e-001
  2.4872597e-001
  2.2199983e-001
  1.9615832e-001
  1.7412953e-001
  1.5720938e-001
  1.4457191e-001
  1.3367614e-001
  1.2138681e-001
  1.0531045e-001
  8.4768470e-002
  6.1011755e-002
  3.6631122e-002
  1.4467715e-002
 -3.4804908e-003
 -1.6704858e-002
 -2.6173304e-002
 -3.3744770e-002
 -4.1311593e-002
 -5.0035969e-002
 -5.9975345e-002
 -7.0224648e-002
 -7.9491291e-002
 -8.6833550e-002
 -9.2213962e-002
 -9.6592922e-002
 -1.0149438e-001
 -1.0823173e-001
 -1.1716842e-001
 -1.2740161e-001
 -1.3707177e-001
 -1.4419388e-001
 -1.4762827e-001
 -1.4770719e-001
 -1.4617528e-001
 -1.4543814e-001
 -1.4747607e-001
 -1.5295932e-001
 -1.6098299e-001
 -1.6950149e-001
 -1.7620273e-001
 -1.7940939e-001
 -1.7866116e-001
 -1.7481642e-001
 -1.6969583e-001
 -1.6541884e-001
 -1.6366132e-001
 -1.6508757e-001
 -1.6915867e-001
 -1.7437963e-001
 -1.7887287e-001
 -1.8104593e-001
 -1.8011406e-001
 -1.7631685e-001
 -1.7077679e-001
 -1.6505393e-001
 -1.6055137e-001
 -1.5799546e-001
 -1.5720366e-001
 -1.5723629e-001
 -1.5684831e-001
 -1.5501898e-001
 -1.5132622e-001
 -1.4604400e-001
 -1.3998775e-001
 -1.3422377e-001
 -1.2976696e-001
 -1.2735076e-001
 -1.2730642e-001
 -1.2955155e-001
 -1.3366090e-001
 -1.3897814e-001
 -1.4473320e-001
 -1.5015170e-001
 -1.5456364e-001
 -1.5752203e-001
 -1.5892241e-001
 -1.5907646e-001
 -1.5866492e-001
 -1.5852195e-001
 -1.5929874e-001
 -1.6116416e-001
 -1.6372294e-001
 -1.6622072e-001
 -1.6792786e-001
 -1.6848480e-001
 -1.6803020e-001
 -1.6708032e-001
 -1.6626811e-001
 -1.6609489e-001
 -1.6679167e-001
 -1.6830092e-001
 -1.7034021e-001
 -1.7251171e-001
 -1.7443787e-001
 -1.7589652e-001
 -1.7690225e-001
 -1.7767496e-001
 -1.7848388e-001
 -1.7943992e-001
 -1.8036403e-001
 -1.8082783e-001
 -1.8035484e-001
 -1.7866438e-001
 -1.7581287e-001
 -1.7215414e-001
 -1.6815035e-001
 -1.6414965e-001
 -1.6026262e-001
 -1.5641192e-001
 -1.5252715e-001
 -1.4876355e-001
 -1.4558844e-001
 -1.4363544e-001
 -1.4335881e-001
 -1.4466289e-001
 -1.4674230e-001
 -1.4828829e-001
 -1.4802324e-001
 -1.4532336e-001
 -1.4060142e-001
 -1.3521761e-001
 -1.3093081e-001
 -1.2915584e-001
 -1.3039187e-001
 -1.3407207e-001
 -1.3884350e-001
 -1.4308965e-001
 -1.4546061e-001
 -1.4525556e-001
 -1.4260473e-001
 -1.3844359e-001
 -1.3426948e-001
 -1.3168825e-001
 -1.3184164e-001
 -1.3491959e-001
 -1.4000363e-001
 -1.4537459e-001
 -1.4918386e-001
 -1.5018049e-001
 -1.4815536e-001
 -1.4393025e-001
 -1.3895982e-001
 -1.3477343e-001
 -1.3249173e-001
 -1.3255613e-001
 -1.3469860e-001
 -1.3810678e-001
 -1.4170762e-001
 -1.4448035e-001
 -1.4571384e-001
 -1.4515122e-001
 -1.4301445e-001
 -1.3994290e-001
 -1.3688139e-001
 -1.3491607e-001
 -1.3503034e-001
 -1.3778548e-001
 -1.4301302e-001
 -1.4967417e-001
 -1.5602567e-001
 -1.6011326e-001
 -1.6044716e-001
 -1.5659517e-001
 -1.4943221e-001
 -1.4091509e-001
 -1.3344365e-001
 -1.2903629e-001
 -1.2862102e-001
 -1.3170267e-001
 -1.3653603e-001
 -1.4075450e-001
 -1.4223053e-001
 -1.3984470e-001
 -1.3386919e-001
 -1.2583059e-001
 -1.1793316e-001
 -1.1228940e-001
 -1.1024661e-001
 -1.1202066e-001
 -1.1671267e-001
 -1.2265529e-001
 -1.2795027e-001
 -1.3102754e-001
 -1.3107176e-001
 -1.2820886e-001
 -1.2340925e-001
 -1.1813724e-001
 -1.1385237e-001
 -1.1152962e-001
 -1.1137830e-001
 -1.1286945e-001
 -1.1504181e-001
 -1.1692593e-001
 -1.1788875e-001
 -1.1777385e-001
 -1.1683341e-001
 -1.1553992e-001
 -1.1438954e-001
 -1.1376997e-001
 -1.1390000e-001
 -1.1480549e-001
 -1.1630575e-001
 -1.1802494e-001
 -1.1946839e-001
 -1.2017820e-001
 -1.1991886e-001
 -1.1879107e-001
 -1.1718147e-001
 -1.1554071e-001
 -1.1409656e-001
 -1.1267590e-001
 -1.1076984e-001
 -1.0783987e-001
 -1.0370953e-001
 -9.8815007e-002
 -9.4150573e-002
 -9.0909784e-002
 -8.9993903e-002
 -9.1633145e-002
 -9.5301111e-002
 -9.9941447e-002
 -1.0436949e-001
 -1.0765371e-001
 -1.0934296e-001
 -1.0951784e-001
 -1.0871533e-001
 -1.0777469e-001
 -1.0762321e-001
 -1.0901895e-001
 -1.1229742e-001
 -1.1719976e-001
 -1.2286344e-001
 -1.2802493e-001
 -1.3141194e-001
 -1.3220739e-001
 -1.3039654e-001
 -1.2682916e-001
 -1.2295137e-001
 -1.2031779e-001
 -1.2008347e-001
 -1.2265588e-001
 -1.2760411e-001
 -1.3383456e-001
 -1.3997085e-001
 -1.4480845e-001
 -1.4767268e-001
 -1.4854274e-001
 -1.4792438e-001
 -1.4658795e-001
 -1.4533264e-001
 -1.4486219e-001
 -1.4573706e-001
 -1.4831222e-001
 -1.5261857e-001
 -1.5824276e-001
 -1.6431385e-001
 -1.6967556e-001
 -1.7323233e-001
 -1.7435435e-001
 -1.7316161e-001
 -1.7052792e-001
 -1.6776489e-001
 -1.6611090e-001
 -1.6626024e-001
 -1.6814879e-001
 -1.7107443e-001
 -1.7405793e-001
 -1.7624165e-001
 -1.7713368e-001
 -1.7662240e-001
 -1.7483894e-001
 -1.7202668e-001
 -1.6852814e-001
 -1.6486045e-001
 -1.6174519e-001
 -1.5998210e-001
 -1.6018770e-001
 -1.6254309e-001
 -1.6670420e-001
 -1.7191998e-001
 -1.7727287e-001
 -1.8190867e-001
 -1.8518140e-001
 -1.8672902e-001
 -1.8652627e-001
 -1.8491850e-001
 -1.8258810e-001
 -1.8040372e-001
 -1.7915853e-001
 -1.7927863e-001
 -1.8062760e-001
 -1.8251686e-001
 -1.8394578e-001
 -1.8398033e-001
 -1.8210341e-001
 -1.7839116e-001
 -1.7347121e-001
 -1.6832125e-001
 -1.6400248e-001
 -1.6140103e-001
 -1.6101967e-001
 -1.6285035e-001
 -1.6635553e-001
 -1.7057841e-001
 -1.7438219e-001
 -1.7678205e-001
 -1.7728362e-001
 -1.7609952e-001
 -1.7412419e-001
 -1.7262760e-001
 -1.7275769e-001
 -1.7505328e-001
 -1.7919297e-001
 -1.8410774e-001
 -1.8840902e-001
 -1.9093440e-001
 -1.9117755e-001
 -1.8944668e-001
 -1.8671997e-001
 -1.8427289e-001
 -1.8321871e-001
 -1.8412610e-001
 -1.8684965e-001
 -1.9062846e-001
 -1.9439936e-001
 -1.9718438e-001
 -1.9839424e-001
 -1.9794982e-001
 -1.9622110e-001
 -1.9385677e-001
 -1.9159046e-001
 -1.9007330e-001
 -1.8974140e-001
 -1.9071420e-001
 -1.9273821e-001
 -1.9521113e-001
 -1.9731884e-001
 -1.9828416e-001
 -1.9767190e-001
 -1.9563841e-001
 -1.9298799e-001
 -1.9094514e-001
 -1.9067954e-001
 -1.9277324e-001
 -1.9689296e-001
 -2.0185620e-001
 -2.0609057e-001
 -2.0828831e-001
 -2.0795626e-001
 -2.0560448e-001
 -2.0248626e-001
 -2.0002246e-001
 -1.9919574e-001
 -2.0019697e-001
 -2.0245223e-001
 -2.0495690e-001
 -2.0671304e-001
 -2.0706684e-001
 -2.0584634e-001
 -2.0332145e-001
 -2.0007276e-001
 -1.9684131e-001
 -1.9437870e-001
 -1.9328629e-001
 -1.9385110e-001
 -1.9592721e-001
 -1.9892931e-001
 -2.0197567e-001
 -2.0415784e-001
 -2.0485175e-001
 -2.0394861e-001
 -2.0189290e-001
 -1.9948118e-001
 -1.9748885e-001
 -1.9629852e-001
 -1.9572851e-001
 -1.9516578e-001
 -1.9393958e-001
 -1.9173202e-001
 -1.8879479e-001
 -1.8584477e-001
 -1.8369070e-001
 -1.8279943e-001
 -1.8304825e-001
 -1.8380139e-001
 -1.8426019e-001
 -1.8388583e-001
 -1.8267005e-001
 -1.8113334e-001
 -1.8008521e-001
 -1.8028689e-001
 -1.8216569e-001
 -1.8566992e-001
 -1.9028550e-001
 -1.9519240e-001
 -1.9951220e-001
 -2.0257199e-001
 -2.0409493e-001
 -2.0424889e-001
 -2.0353968e-001
 -2.0259642e-001
 -2.0193662e-001
 -2.0180279e-001
 -2.0212967e-001
 -2.0264099e-001
 -2.0301743e-001
 -2.0305323e-001
 -2.0273537e-001
 -2.0221730e-001
 -2.0169982e-001
 -2.0127620e-001
 -2.0083494e-001
 -2.0010739e-001
 -1.9886583e-001
 -1.9715815e-001
 -1.9540590e-001
 -1.9426410e-001
 -1.9430351e-001
 -1.9570203e-001
 -1.9812589e-001
 -2.0085644e-001
 -2.0307491e-001
 -2.0415038e-001
 -2.0380893e-001
 -2.0214918e-001
 -1.9954536e-001
 -1.9650690e-001
 -1.9354806e-001
 -1.9108981e-001
 -1.8939011e-001
 -1.8849221e-001
 -1.8819398e-001
 -1.8806450e-001
 -1.8754128e-001
 -1.8611583e-001
 -1.8356194e-001
 -1.8011040e-001
 -1.7646484e-001
 -1.7360865e-001
 -1.7245683e-001
 -1.7349666e-001
 -1.7657600e-001
 -1.8092710e-001
 -1.8540948e-001
 -1.8887940e-001
 -1.9056497e-001
 -1.9032953e-001
 -1.8873079e-001
 -1.8683830e-001
 -1.8585776e-001
 -1.8669053e-001
 -1.8958721e-001
 -1.9401921e-001
 -1.9881584e-001
 -2.0252875e-001
 -2.0391437e-001
 -2.0238123e-001
 -1.9824709e-001
 -1.9270287e-001
 -1.8747552e-001
 -1.8428658e-001
 -1.8427796e-001
 -1.8759700e-001
 -1.9329470e-001
 -1.9960051e-001
 -2.0451025e-001
 -2.0649662e-001
 -2.0508039e-001
 -2.0102992e-001
 -1.9608797e-001
 -1.9230917e-001
 -1.9125745e-001
 -1.9338638e-001
 -1.9786190e-001
 -2.0289985e-001
 -2.0646326e-001
 -2.0700864e-001
 -2.0397035e-001
 -1.9782498e-001
 -1.8979095e-001
 -1.8136124e-001
 -1.7387188e-001
 -1.6821474e-001
 -1.6470520e-001
 -1.6307614e-001
 -1.6257653e-001
 -1.6216004e-001
 -1.6072858e-001
 -1.5737051e-001
 -1.5153875e-001
 -1.4315121e-001
 -1.3262586e-001
 -1.2085531e-001
 -1.0909266e-001
 -9.8707843e-002
 -9.0812325e-002
 -8.5833960e-002
 -8.3203972e-002
 -8.1335841e-002
 -7.7995828e-002
 -7.1003157e-002
 -5.9024962e-002
 -4.2144531e-002
 -2.1945719e-002
 -1.0537793e-003
  1.7694046e-002
  3.2125546e-002
  4.1340600e-002
  4.5873341e-002
  4.7427600e-002
  4.8345098e-002
  5.0997806e-002
  5.7238733e-002
  6.7976254e-002
  8.2922133e-002
  1.0059172e-001
  1.1862795e-001
  1.3442073e-001
  1.4584176e-001
  1.5182917e-001
  1.5261633e-001
  1.4956639e-001
  1.4473120e-001
  1.4030982e-001
  1.3814438e-001
  1.3932766e-001
  1.4396409e-001
  1.5112559e-001
  1.5904027e-001
  1.6551448e-001
  1.6851348e-001
  1.6674098e-001
  1.6001777e-001
  1.4931342e-001
  1.3642641e-001
  1.2345914e-001
  1.1230375e-001
  1.0430117e-001
  1.0010628e-001
  9.9679401e-002
  1.0230760e-001
  1.0664231e-001
  1.1084069e-001
  1.1291101e-001
  1.1125147e-001
  1.0521041e-001
  9.5406651e-002
  8.3608979e-002
  7.2163893e-002
  6.3178366e-002
  5.7790983e-002
  5.5826887e-002
  5.5946386e-002
  5.6168472e-002
  5.4511113e-002
  4.9506408e-002
  4.0473917e-002
  2.7560215e-002
  1.1606378e-002
 -6.0990537e-003
 -2.4133104e-002
 -4.1256518e-002
 -5.6658703e-002
 -7.0059616e-002
 -8.1645776e-002
 -9.1884384e-002
 -1.0130834e-001
 -1.1036739e-001
 -1.1939467e-001
 -1.2866624e-001
 -1.3847146e-001
 -1.4910459e-001
 -1.6074890e-001
 -1.7331412e-001
 -1.8633924e-001
 -1.9904675e-001
 -2.1055946e-001
 -2.2021726e-001
 -2.2788068e-001
 -2.3408473e-001
 -2.3993250e-001
 -2.4671486e-001
 -2.5538510e-001
 -2.6612054e-001
 -2.7818871e-001
 -2.9019760e-001
 -3.0062298e-001
 -3.0837038e-001
 -3.1311587e-001
 -3.1528700e-001
 -3.1573084e-001
 -3.1527052e-001
 -3.1438811e-001
 -3.1317715e-001
 -3.1154428e-001
 -3.0950399e-001
 -3.0737095e-001
 -3.0572125e-001
 -3.0512889e-001
 -3.0582280e-001
 -3.0747887e-001
 -3.0930851e-001
 -3.1043935e-001
 -3.1039607e-001
 -3.0940576e-001
 -3.0833689e-001
 -3.0828671e-001
 -3.1002908e-001
 -3.1360616e-001
 -3.1826097e-001
 -3.2273022e-001
 -3.2575231e-001
 -3.2656772e-001
 -3.2521035e-001
 -3.2248561e-001
 -3.1966384e-001
 -3.1803175e-001
 -3.1848459e-001
 -3.2129112e-001
 -3.2606730e-001
 -3.3192141e-001
 -3.3771336e-001
 -3.4237217e-001
 -3.4519596e-001
 -3.4602517e-001
 -3.4518803e-001
 -3.4320792e-001
 -3.4039939e-001
 -3.3656691e-001
 -3.3098357e-001
 -3.2267422e-001
 -3.1085049e-001
 -2.9525010e-001
 -2.7617794e-001
 -2.5420836e-001
 -2.2970234e-001
 -2.0241507e-001
 -1.7144617e-001
 -1.3562150e-001
 -9.4173369e-002
 -4.7419814e-002
  2.8900021e-003
  5.3787950e-002
  1.0186792e-001
  1.4440567e-001
  1.8041798e-001
  2.1126125e-001
  2.4056350e-001
  2.7357584e-001
  3.1625381e-001
  3.7440864e-001
  4.5310469e-001
  5.5624759e-001
  6.8617302e-001
  8.4310580e-001
  1.0245707e+000
  1.2250533e+000
  1.4362755e+000
  1.6482986e+000
  1.8513343e+000
  2.0377641e+000
  2.2036214e+000
  2.3488499e+000
  2.4760539e+000
  2.5880587e+000
  2.6851326e+000
  2.7629545e+000
  2.8122429e+000
  2.8204430e+000
  2.7751399e+000
  2.6681683e+000
  2.4989897e+000
  2.2760374e+000
  2.0154199e+000
  1.7373766e+000
  1.4617476e+000
  1.2040283e+000
  9.7319932e-001
  7.7169791e-001
  5.9705893e-001
  4.4429788e-001
  3.0813762e-001
  1.8454252e-001
  7.1431043e-002
 -3.1311670e-002
 -1.2232783e-001
 -1.9960088e-001
 -2.6139478e-001
 -3.0708937e-001
 -3.3767821e-001
 -3.5577591e-001
 -3.6514362e-001
 -3.6991392e-001
 -3.7378991e-001
 -3.7946405e-001
 -3.8837636e-001
 -4.0078270e-001
 -4.1600230e-001
 -4.3268974e-001
 -4.4902778e-001
 -4.6283648e-001
 -4.7169401e-001
 -4.7320211e-001
 -4.6546031e-001
 -4.4766244e-001
 -4.2059023e-001
 -3.8674978e-001
 -3.5000841e-001
 -3.1478651e-001
 -2.8504228e-001
 -2.6336819e-001
 -2.5047507e-001
 -2.4520697e-001
 -2.4506094e-001
 -2.4702759e-001
 -2.4846831e-001
 -2.4775064e-001
 -2.4447501e-001
 -2.3928819e-001
 -2.3341844e-001
 -2.2813981e-001
 -2.2436144e-001
 -2.2245395e-001
 -2.2230595e-001
 -2.2350915e-001
 -2.2554490e-001
 -2.2788821e-001
 -2.3002459e-001
 -2.3144569e-001
 -2.3170977e-001
 -2.3059982e-001
 -2.2831276e-001
 -2.2554170e-001
 -2.2333423e-001
 -2.2272690e-001
 -2.2430208e-001
 -2.2788479e-001
 -2.3253311e-001
 -2.3681728e-001
 -2.3924960e-001
 -2.3870701e-001
 -2.3475143e-001
 -2.2780484e-001
 -2.1913117e-001
 -2.1057149e-001
 -2.0404791e-001
 -2.0098123e-001
 -2.0185607e-001
 -2.0612425e-001
 -2.1247740e-001
 -2.1934437e-001
 -2.2538701e-001
 -2.2981226e-001
 -2.3244259e-001
 -2.3360240e-001
 -2.3392137e-001
 -2.3412493e-001
 -2.3482723e-001
 -2.3632602e-001
 -2.3843657e-001
 -2.4044889e-001
 -2.4128392e-001
 -2.3983905e-001
 -2.3539878e-001
 -2.2792514e-001
 -2.1808514e-001
 -2.0699909e-001
 -1.9583099e-001
 -1.8541297e-001
 -1.7606914e-001
 -1.6769710e-001
 -1.6003342e-001
 -1.5293924e-001
 -1.4654242e-001
 -1.4116137e-001
 -1.3706291e-001
 -1.3420489e-001
 -1.3213288e-001
 -1.3012289e-001
 -1.2751757e-001
 -1.2406738e-001
 -1.2005809e-001
 -1.1612415e-001
 -1.1284866e-001
 -1.1039443e-001
 -1.0838982e-001
 -1.0612248e-001
 -1.0289899e-001
 -9.8345880e-002
 -9.2508408e-002
 -8.5771410e-002
 -7.8739029e-002
 -7.2175184e-002
 -6.6971577e-002
 -6.4022376e-002
 -6.3944922e-002
 -6.6743286e-002
 -7.1618667e-002
 -7.7091707e-002
 -8.1447064e-002
 -8.3340690e-002
 -8.2310015e-002
 -7.8941808e-002
 -7.4591682e-002
 -7.0764195e-002
 -6.8438208e-002
 -6.7647920e-002
 -6.7494467e-002
 -6.6557800e-002
 -6.3511621e-002
 -5.7673797e-002
 -4.9264794e-002
 -3.9284638e-002
 -2.9100768e-002
 -1.9968695e-002
 -1.2705428e-002
 -7.6104658e-003
 -4.5748409e-003
 -3.2399827e-003
 -3.1030959e-003
 -3.5663016e-003
 -4.0011454e-003
 -3.8881075e-003
 -3.0099922e-003
 -1.5992006e-003
 -3.2263953e-004
 -4.9015419e-005
 -1.4541087e-003
 -4.6260755e-003
 -8.8721448e-003
 -1.2862019e-002
 -1.5089661e-002
 -1.4466814e-002
 -1.0770721e-002
 -4.7178691e-003
  2.3846641e-003
  9.2422338e-003
  1.5135754e-002
  2.0186009e-002
  2.5223791e-002
  3.1359115e-002
  3.9462837e-002
  4.9789860e-002
  6.1896432e-002
  7.4868738e-002
  8.7737651e-002
  9.9871033e-002
  1.1115734e-001
  1.2191139e-001
  1.3257791e-001
  1.4340332e-001
  1.5424889e-001
  1.6463790e-001
  1.7400611e-001
  1.8201775e-001
  1.8877155e-001
  1.9477768e-001
  2.0071308e-001
  2.0708882e-001
  2.1401816e-001
  2.2122310e-001
  2.2828493e-001
  2.3500076e-001
  2.4163531e-001
  2.4890234e-001
  2.5765610e-001
  2.6844358e-001
  2.8116514e-001
  2.9505153e-001
  3.0900147e-001
  3.2212232e-001
  3.3419227e-001
  3.4579224e-001
  3.5802653e-001
  3.7196524e-001
  3.8807989e-001
  4.0593762e-001
  4.2428941e-001
  4.4151099e-001
  4.5621515e-001
  4.6779297e-001
  4.7666948e-001
  4.8416461e-001
  4.9200184e-001
  5.0165071e-001
  5.1376564e-001
  5.2795619e-001
  5.4299638e-001
  5.5739433e-001
  5.7007404e-001
  5.8085404e-001
  5.9049517e-001
  6.0030118e-001
  6.1147779e-001
  6.2456753e-001
  6.3922217e-001
  6.5439342e-001
  6.6881661e-001
  6.8153559e-001
  6.9222875e-001
  7.0122465e-001
  7.0925702e-001
  7.1710764e-001
  7.2528739e-001
  7.3384723e-001
  7.4234947e-001
  7.4999371e-001
  7.5586724e-001
  7.5926016e-001
  7.5995414e-001
  7.5837918e-001
  7.5555545e-001
  7.5280429e-001
  7.5130837e-001
  7.5168235e-001
  7.5373466e-001
  7.5653398e-001
  7.5876597e-001
  7.5923623e-001
  7.5731062e-001
  7.5311843e-001
  7.4745421e-001
  7.4143820e-001
  7.3607779e-001
  7.3189280e-001
  7.2873258e-001
  7.2584039e-001
  7.2212872e-001
  7.1654868e-001
  7.0840085e-001
  6.9746926e-001
  6.8395219e-001
  6.6826455e-001
  6.5083739e-001
  6.3201525e-001
  6.1207341e-001
  5.9129727e-001
  5.7003140e-001
  5.4863641e-001
  5.2736596e-001
  5.0624313e-001
  4.8502924e-001
  4.6332866e-001
  4.4079246e-001
  4.1731886e-001
  3.9313818e-001
  3.6872394e-001
  3.4456762e-001
  3.2094042e-001
  2.9778679e-001
  2.7482819e-001
  2.5183300e-001
  2.2889674e-001
  2.0654371e-001
  1.8553862e-001
  1.6645596e-001
  1.4921141e-001
  1.3282383e-001
  1.1560476e-001
  9.5790455e-002
  7.2405820e-002
  4.5977435e-002
  1.8698482e-002
 -6.1546865e-003
 -2.5408536e-002
 -3.7308969e-002
 -4.2373816e-002
 -4.3355044e-002
 -4.4277714e-002
 -4.8945278e-002
 -5.9533815e-002
 -7.5829802e-002
 -9.5359121e-002
 -1.1429061e-001
 -1.2874465e-001
 -1.3605819e-001
 -1.3561903e-001
 -1.2902871e-001
 -1.1955398e-001
 -1.1105306e-001
 -1.0675204e-001
 -1.0830949e-001
 -1.1549694e-001
 -1.2657581e-001
 -1.3917524e-001
 -1.5128711e-001
 -1.6197356e-001
 -1.7153167e-001
 -1.8111087e-001
 -1.9201285e-001
 -2.0501367e-001
 -2.1999395e-001
 -2.3598910e-001
 -2.5157392e-001
 -2.6536690e-001
 -2.7642796e-001
 -2.8441424e-001
 -2.8948374e-001
 -2.9202776e-001
 -2.9234797e-001
 -2.9040188e-001
 -2.8574228e-001
 -2.7773626e-001
 -2.6602501e-001
 -2.5101247e-001
 -2.3407817e-001
 -2.1730658e-001
 -2.0278615e-001
 -1.9179774e-001
 -1.8431325e-001
 -1.7909167e-001
 -1.7436384e-001
 -1.6879405e-001
 -1.6224940e-001
 -1.5598010e-001
 -1.5208953e-001
 -1.5252493e-001
 -1.5806988e-001
 -1.6783637e-001
 -1.7952189e-001
 -1.9032983e-001
 -1.9813057e-001
 -2.0232274e-001
 -2.0399990e-001
 -2.0536562e-001
 -2.0869659e-001
 -2.1534746e-001
 -2.2523523e-001
 -2.3698922e-001
 -2.4864592e-001
 -2.5854630e-001
 -2.6603086e-001
 -2.7162907e-001
 -2.7665645e-001
 -2.8238712e-001
 -2.8917273e-001
 -2.9594872e-001
 -3.0044627e-001
 -3.0011909e-001
 -2.9341281e-001
 -2.8075810e-001
 -2.6473493e-001
 -2.4924336e-001
 -2.3802603e-001
 -2.3322949e-001
 -2.3467385e-001
 -2.4014273e-001
 -2.4651007e-001
 -2.5114144e-001
 -2.5292010e-001
 -2.5247438e-001
 -2.5159802e-001
 -2.5224280e-001
 -2.5562687e-001
 -2.6186878e-001
 -2.7021988e-001
 -2.7963242e-001
 -2.8926116e-001
 -2.9860999e-001
 -3.0730147e-001
 -3.1468658e-001
 -3.1959860e-001
 -3.2046900e-001
 -3.1582564e-001
 -3.0498003e-001
 -2.8858679e-001
 -2.6879275e-001
 -2.4886127e-001
 -2.3236621e-001
 -2.2220799e-001
 -2.1977531e-001
 -2.2454703e-001
 -2.3430033e-001
 -2.4588273e-001
 -2.5628314e-001
 -2.6359816e-001
 -2.6752407e-001
 -2.6922037e-001
 -2.7067949e-001
 -2.7392735e-001
 -2.8036430e-001
 -2.9038413e-001
 -3.0324474e-001
 -3.1713203e-001
 -3.2942832e-001
 -3.3722961e-001
 -3.3807226e-001
 -3.3068629e-001
 -3.1550632e-001
 -2.9470207e-001
 -2.7163314e-001
 -2.4985225e-001
 -2.3200473e-001
 -2.1907793e-001
 -2.1034248e-001
 -2.0401729e-001
 -1.9833709e-001
 -1.9250113e-001
 -1.8704514e-001
 -1.8347212e-001
 -1.8335319e-001
 -1.8738148e-001
 -1.9488702e-001
 -2.0407219e-001
 -2.1283056e-001
 -2.1969323e-001
 -2.2439483e-001
 -2.2778807e-001
 -2.3120291e-001
 -2.3562240e-001
 -2.4109263e-001
 -2.4661574e-001
 -2.5052923e-001
 -2.5118910e-001
 -2.4769606e-001
 -2.4040387e-001
 -2.3100025e-001
 -2.2207559e-001
 -2.1629672e-001
 -2.1550512e-001
 -2.2012871e-001
 -2.2915947e-001
 -2.4067197e-001
 -2.5260446e-001
 -2.6344086e-001
 -2.7254369e-001
 -2.8009301e-001
 -2.8674872e-001
 -2.9320531e-001
 -2.9978549e-001
 -3.0618640e-001
 -3.1146501e-001
 -3.1429539e-001
 -3.1343736e-001
 -3.0825752e-001
 -2.9908866e-001
 -2.8724105e-001
 -2.7460108e-001
 -2.6293632e-001
 -2.5319563e-001
 -2.4515168e-001
 -2.3761675e-001
 -2.2918423e-001
 -2.1914082e-001
 -2.0805650e-001
 -1.9771067e-001
 -1.9037830e-001
 -1.8784900e-001
 -1.9067368e-001
 -1.9797953e-001
 -2.0788248e-001
 -2.1824341e-001
 -2.2739922e-001
 -2.3458348e-001
 -2.3994619e-001
 -2.4425870e-001
 -2.4847041e-001
 -2.5328718e-001
 -2.5891673e-001
 -2.6507367e-001
 -2.7122895e-001
 -2.7694878e-001
 -2.8209839e-001
 -2.8676899e-001
 -2.9098141e-001
 -2.9438300e-001
 -2.9617221e-001
 -2.9535937e-001
 -2.9128384e-001
 -2.8414932e-001
 -2.7527914e-001
 -2.6687780e-001
 -2.6130298e-001
 -2.6011604e-001
 -2.6334970e-001
 -2.6938663e-001
 -2.7556919e-001
 -2.7929001e-001
 -2.7906225e-001
 -2.7508316e-001
 -2.6906511e-001
 -2.6345787e-001
 -2.6043984e-001
 -2.6111050e-001
 -2.6517659e-001
 -2.7118319e-001
 -2.7711803e-001
 -2.8111043e-001
 -2.8197810e-001
 -2.7948736e-001
 -2.7430562e-001
 -2.6770170e-001
 -2.6110493e-001
 -2.5567632e-001
 -2.5204607e-001
 -2.5029618e-001
 -2.5013868e-001
 -2.5114666e-001
 -2.5290675e-001
 -2.5505697e-001
 -2.5726680e-001
 -2.5923832e-001
 -2.6076110e-001
 -2.6179146e-001
 -2.6249935e-001
 -2.6324638e-001
 -2.6449703e-001
 -2.6669259e-001
 -2.7012476e-001
 -2.7484705e-001
 -2.8065775e-001
 -2.8716753e-001
 -2.9392502e-001
 -3.0053781e-001
 -3.0672467e-001
 -3.1227800e-001
 -3.1698024e-001
 -3.2055860e-001
 -3.2274308e-001
 -3.2341915e-001
 -3.2278490e-001
 -3.2139239e-001
 -3.2000361e-001
 -3.1929451e-001
 -3.1952719e-001
 -3.2033094e-001
 -3.2068974e-001
 -3.1916842e-001
 -3.1434747e-001
 -3.0537338e-001
 -2.9245926e-001
 -2.7711804e-001
 -2.6194152e-001
 -2.4989776e-001
 -2.4335922e-001
 -2.4325619e-001
 -2.4873893e-001
 -2.5750979e-001
 -2.6667738e-001
 -2.7376278e-001
 -2.7745610e-001
 -2.7786699e-001
 -2.7624118e-001
 -2.7431849e-001
 -2.7361737e-001
 -2.7492524e-001
 -2.7816749e-001
 -2.8265696e-001
 -2.8755490e-001
 -2.9228565e-001
 -2.9669788e-001
 -3.0093092e-001
 -3.0511849e-001
 -3.0913287e-001
 -3.1251591e-001
 -3.1463105e-001
 -3.1497423e-001
 -3.1351555e-001
 -3.1090569e-001
 -3.0840783e-001
 -3.0753115e-001
 -3.0949364e-001
 -3.1472887e-001
 -3.2262644e-001
 -3.3160399e-001
 -3.3951925e-001
 -3.4434998e-001
 -3.4496323e-001
 -3.4168041e-001
 -3.3632476e-001
 -3.3161493e-001
 -3.3009981e-001
 -3.3311804e-001
 -3.4029430e-001
 -3.4980466e-001
 -3.5922928e-001
 -3.6653043e-001
 -3.7071078e-001
 -3.7195995e-001
 -3.7137520e-001
 -3.7046834e-001
 -3.7063881e-001
 -3.7271678e-001
 -3.7664949e-001
 -3.8140538e-001
 -3.8515534e-001
 -3.8573970e-001
 -3.8135422e-001
 -3.7129280e-001
 -3.5648776e-001
 -3.3955346e-001
 -3.2414761e-001
 -3.1373334e-001
 -3.1016112e-001
 -3.1270545e-001
 -3.1811346e-001
 -3.2180947e-001
 -3.1982614e-001
 -3.1061091e-001
 -2.9584745e-001
 -2.7986828e-001
 -2.6789485e-001
 -2.6388813e-001
 -2.6895785e-001
 -2.8100039e-001
 -2.9566464e-001
 -3.0816420e-001
 -3.1512342e-001
 -3.1569390e-001
 -3.1155262e-001
 -3.0590371e-001
 -3.0201439e-001
 -3.0194819e-001
 -3.0598232e-001
 -3.1282937e-001
 -3.2042466e-001
 -3.2685630e-001
 -3.3105151e-001
 -3.3301717e-001
 -3.3364420e-001
 -3.3423925e-001
 -3.3600560e-001
 -3.3965878e-001
 -3.4526324e-001
 -3.5227754e-001
 -3.5974498e-001
 -3.6656658e-001
 -3.7180398e-001
 -3.7494783e-001
 -3.7606152e-001
 -3.7571836e-001
 -3.7472725e-001
 -3.7375976e-001
 -3.7306589e-001
 -3.7242786e-001
 -3.7136228e-001
 -3.6943444e-001
 -3.6649817e-001
 -3.6274514e-001
 -3.5857718e-001
 -3.5441093e-001
 -3.5053753e-001
 -3.4709920e-001
 -3.4415879e-001
 -3.4178150e-001
 -3.4005496e-001
 -3.3903558e-001
 -3.3867501e-001
 -3.3879978e-001
 -3.3918028e-001
 -3.3966026e-001
 -3.4026713e-001
 -3.4122358e-001
 -3.4284028e-001
 -3.4534982e-001
 -3.4878268e-001
 -3.5295097e-001
 -3.5752740e-001
 -3.6215142e-001
 -3.6650423e-001
 -3.7034679e-001
 -3.7355274e-001
 -3.7615607e-001
 -3.7839323e-001
 -3.8068919e-001
 -3.8354145e-001
 -3.8730009e-001
 -3.9191820e-001
 -3.9681300e-001
 -4.0096855e-001
 -4.0329670e-001
 -4.0310729e-001
 -4.0044173e-001
 -3.9607844e-001
 -3.9120207e-001
 -3.8691735e-001
 -3.8386002e-001
 -3.8208042e-001
 -3.8121610e-001
 -3.8082115e-001
 -3.8065208e-001
 -3.8074947e-001
 -3.8128132e-001
 -3.8226126e-001
 -3.8333826e-001
 -3.8382218e-001
 -3.8297415e-001
 -3.8042800e-001
 -3.7651256e-001
 -3.7227592e-001
 -3.6915912e-001
 -3.6844753e-001
 -3.7074300e-001
 -3.7569455e-001
 -3.8210657e-001
 -3.8836833e-001
 -3.9300564e-001
 -3.9512350e-001
 -3.9460021e-001
 -3.9203123e-001
 -3.8851075e-001
 -3.8534414e-001
 -3.8374087e-001
 -3.8450969e-001
 -3.8780151e-001
 -3.9299088e-001
 -3.9878837e-001
 -4.0359829e-001
 -4.0601966e-001
 -4.0530615e-001
 -4.0160385e-001
 -3.9587736e-001
 -3.8956612e-001
 -3.8411546e-001
 -3.8055829e-001
 -3.7928410e-001
 -3.8004809e-001
 -3.8217542e-001
 -3.8484663e-001
 -3.8734575e-001
 -3.8920655e-001
 -3.9025847e-001
 -3.9060871e-001
 -3.9058697e-001
 -3.9064957e-001
 -3.9123200e-001
 -3.9257328e-001
 -3.9458528e-001
 -3.9685409e-001
 -3.9880902e-001
 -3.9999951e-001
 -4.0034095e-001
 -4.0018675e-001
 -4.0016499e-001
 -4.0084367e-001
 -4.0238716e-001
 -4.0438221e-001
 -4.0593956e-001
 -4.0605505e-001
 -4.0409323e-001
 -4.0017680e-001
 -3.9527043e-001
 -3.9086363e-001
 -3.8835656e-001
 -3.8842934e-001
 -3.9071042e-001
 -3.9391305e-001
 -3.9636727e-001
 -3.9668774e-001
 -3.9428223e-001
 -3.8951209e-001
 -3.8348210e-001
 -3.7758012e-001
 -3.7295913e-001
 -3.7014440e-001
 -3.6887579e-001
 -3.6820159e-001
 -3.6677009e-001
 -3.6323206e-001
 -3.5665786e-001
 -3.4686880e-001
 -3.3458004e-001
 -3.2126906e-001
 -3.0874759e-001
 -2.9853375e-001
 -2.9124885e-001
 -2.8631605e-001
 -2.8214501e-001
 -2.7676517e-001
 -2.6863355e-001
 -2.5723391e-001
 -2.4318021e-001
 -2.2780121e-001
 -2.1246991e-001
 -1.9806670e-001
 -1.8483483e-001
 -1.7259963e-001
 -1.6109612e-001
 -1.5014045e-001
 -1.3956161e-001
 -1.2902083e-001
 -1.1792932e-001
 -1.0558863e-001
 -9.1501154e-002
 -7.5667690e-002
 -5.8689854e-002
 -4.1614761e-002
 -2.5604665e-002
 -1.1594744e-002
 -8.5426922e-005
  8.8692756e-003
  1.5515389e-002
  2.0199290e-002
  2.3226786e-002
  2.4840872e-002
  2.5296705e-002
  2.4949704e-002
  2.4267762e-002
  2.3733746e-002
  2.3681687e-002
  2.4156391e-002
  2.4872815e-002
  2.5293801e-002
  2.4784965e-002
  2.2779763e-002
  1.8904850e-002
  1.3058081e-002
  5.4657459e-003
 -3.2609080e-003
 -1.2102446e-002
 -1.9729296e-002
 -2.4798839e-002
 -2.6423856e-002
 -2.4637790e-002
 -2.0602400e-002
 -1.6372046e-002
 -1.4233483e-002
 -1.5872526e-002
 -2.1740284e-002
 -3.0919024e-002
 -4.1550211e-002
 -5.1613610e-002
 -5.9688063e-002
 -6.5361893e-002
 -6.9160250e-002
 -7.2103170e-002
 -7.5173394e-002
 -7.8974935e-002
 -8.3709444e-002
 -8.9392510e-002
 -9.6111359e-002
 -1.0414824e-001
 -1.1390539e-001
 -1.2567571e-001
 -1.3936724e-001
 -1.5431823e-001
 -1.6933291e-001
 -1.8300015e-001
 -1.9422466e-001
 -2.0275676e-001
 -2.0944400e-001
 -2.1601331e-001
 -2.2441373e-001
 -2.3599823e-001
 -2.5094473e-001
 -2.6821406e-001
 -2.8606177e-001
 -3.0282598e-001
 -3.1757949e-001
 -3.3033067e-001
 -3.4171840e-001
 -3.5242362e-001
 -3.6266351e-001
 -3.7206440e-001
 -3.7996371e-001
 -3.8591619e-001
 -3.9005735e-001
 -3.9308648e-001
 -3.9588828e-001
 -3.9903418e-001
 -4.0245549e-001
 -4.0545893e-001
 -4.0705800e-001
 -4.0643883e-001
 -4.0333195e-001
 -3.9813001e-001
 -3.9172849e-001
 -3.8519674e-001
 -3.7944315e-001
 -3.7500464e-001
 -3.7200353e-001
 -3.7023164e-001
 -3.6928050e-001
 -3.6864903e-001
 -3.6780793e-001
 -3.6625168e-001
 -3.6358951e-001
 -3.5969700e-001
 -3.5487898e-001
 -3.4992869e-001
 -3.4597300e-001
 -3.4409495e-001
 -3.4487034e-001
 -3.4804475e-001
 -3.5253842e-001
 -3.5681407e-001
 -3.5946155e-001
 -3.5974090e-001
 -3.5784161e-001
 -3.5475053e-001
 -3.5180064e-001
 -3.5010397e-001
 -3.5009993e-001
 -3.5138200e-001
 -3.5284498e-001
 -3.5307222e-001
 -3.5080006e-001
 -3.4528231e-001
 -3.3643065e-001
 -3.2470359e-001
 -3.1081634e-001
 -2.9540849e-001
 -2.7880827e-001
 -2.6097071e-001
 -2.4157123e-001
 -2.2015766e-001
 -1.9625405e-001
 -1.6937943e-001
 -1.3904612e-001
 -1.0484968e-001
 -6.6702868e-002
 -2.5130218e-002
  1.8569953e-002
  6.2480631e-002
  1.0458069e-001
  1.4347027e-001
  1.7904265e-001
  2.1287203e-001
  2.4823102e-001
  2.8979539e-001
  3.4314848e-001
  4.1416470e-001
  5.0829018e-001
  6.2971262e-001
  7.8045597e-001
  9.5953959e-001
  1.1624564e+000
  1.3812694e+000
  1.6055344e+000
  1.8240258e+000
  2.0269198e+000
  2.2077925e+000
  2.3646652e+000
  2.4995119e+000
  2.6161667e+000
  2.7172583e+000
  2.8013369e+000
  2.8614506e+000
  2.8859690e+000
  2.8616000e+000
  2.7776515e+000
  2.6300260e+000
  2.4234726e+000
  2.1712677e+000
  1.8924793e+000
  1.6078386e+000
  1.3356182e+000
  1.0886968e+000
  8.7339858e-001
  6.9003603e-001
  5.3462673e-001
  4.0108516e-001
  2.8327663e-001
  1.7652481e-001
  7.8372770e-002
 -1.1427185e-002
 -9.1556054e-002
 -1.6011449e-001
 -2.1559040e-001
 -2.5751096e-001
 -2.8666942e-001
 -3.0501332e-001
 -3.1536902e-001
 -3.2112906e-001
 -3.2591023e-001
 -3.3310550e-001
 -3.4527689e-001
 -3.6347291e-001
 -3.8671316e-001
 -4.1193111e-001
 -4.3453328e-001
 -4.4947879e-001
 -4.5255708e-001
 -4.4146515e-001
 -4.1637654e-001
 -3.7988041e-001
 -3.3635372e-001
 -2.9096271e-001
 -2.4856743e-001
 -2.1282028e-001
 -1.8568074e-001
 -1.6741346e-001
 -1.5696267e-001
 -1.5249807e-001
 -1.5194257e-001
 -1.5337708e-001
 -1.5529917e-001
 -1.5674841e-001
 -1.5731061e-001
 -1.5701425e-001
 -1.5615540e-001
 -1.5511193e-001
 -1.5420261e-001
 -1.5361428e-001
 -1.5338630e-001
 -1.5342656e-001
 -1.5353656e-001
 -1.5343727e-001
 -1.5280397e-001
 -1.5132832e-001
 -1.4881896e-001
 -1.4532271e-001
 -1.4121143e-001
 -1.3716720e-001
 -1.3403063e-001
 -1.3254340e-001
 -1.3307599e-001
 -1.3544705e-001
 -1.3890594e-001
 -1.4229163e-001
 -1.4433242e-001
 -1.4401536e-001
 -1.4092348e-001
 -1.3541884e-001
 -1.2857178e-001
 -1.2181901e-001
 -1.1645490e-001
 -1.1316111e-001
 -1.1179023e-001
 -1.1150965e-001
 -1.1122682e-001
 -1.1006758e-001
 -1.0766774e-001
 -1.0417307e-001
 -1.0002286e-001
 -9.5690762e-002
 -9.1525039e-002
 -8.7722718e-002
 -8.4380629e-002
 -8.1546451e-002
 -7.9232773e-002
 -7.7407141e-002
 -7.5991115e-002
 -7.4885337e-002
 -7.4004693e-002
 -7.3285817e-002
 -7.2641132e-002
 -7.1878209e-002
 -7.0647569e-002
 -6.8485299e-002
 -6.4968762e-002
 -5.9933427e-002
 -5.3649852e-002
 -4.6859727e-002
 -4.0620236e-002
 -3.5985519e-002
 -3.3629431e-002
 -3.3553796e-002
 -3.5012127e-002
 -3.6709242e-002
 -3.7230920e-002
 -3.5553969e-002
 -3.1435485e-002
 -2.5516407e-002
 -1.9091772e-002
 -1.3642076e-002
 -1.0312868e-002
 -9.5324031e-003
 -1.0885372e-002
 -1.3262410e-002
 -1.5221761e-002
 -1.5447951e-002
 -1.3172342e-002
 -8.4283813e-003
 -2.0501997e-003
  4.6100574e-003
  1.0176478e-002
  1.3787802e-002
  1.5459426e-002
  1.6086919e-002
  1.7048224e-002
  1.9551364e-002
  2.4019920e-002
  2.9819158e-002
  3.5476553e-002
  3.9310974e-002
  4.0184496e-002
  3.8036107e-002
  3.3966000e-002
  2.9843453e-002
  2.7608535e-002
  2.8549334e-002
  3.2831299e-002
  3.9449223e-002
  4.6611590e-002
  5.2408866e-002
  5.5514986e-002
  5.5662757e-002
  5.3725366e-002
  5.1389246e-002
  5.0552723e-002
  5.2674528e-002
  5.8302764e-002
  6.6940514e-002
  7.7273025e-002
  8.7643163e-002
  9.6579401e-002
  1.0319101e-001
  1.0733067e-001
  1.0952917e-001
  1.1077830e-001
  1.1225453e-001
  1.1504892e-001
  1.1993046e-001
  1.2715452e-001
  1.3634803e-001
  1.4653265e-001
  1.5634322e-001
  1.6443182e-001
  1.6994199e-001
  1.7285920e-001
  1.7405986e-001
  1.7500198e-001
  1.7717002e-001
  1.8151114e-001
  1.8810658e-001
  1.9620579e-001
  2.0457771e-001
  2.1200036e-001
  2.1767949e-001
  2.2145521e-001
  2.2376876e-001
  2.2545457e-001
  2.2746209e-001
  2.3059886e-001
  2.3534955e-001
  2.4179336e-001
  2.4962909e-001
  2.5831105e-001
  2.6727756e-001
  2.7620528e-001
  2.8517512e-001
  2.9463855e-001
  3.0515780e-001
  3.1702814e-001
  3.2998975e-001
  3.4321928e-001
  3.5565046e-001
  3.6648491e-001
  3.7562792e-001
  3.8379931e-001
  3.9223190e-001
  4.0209795e-001
  4.1396051e-001
  4.2753085e-001
  4.4183341e-001
  4.5565516e-001
  4.6802855e-001
  4.7852798e-001
  4.8729901e-001
  4.9488562e-001
  5.0199468e-001
  5.0931842e-001
  5.1745764e-001
  5.2690497e-001
  5.3801115e-001
  5.5088898e-001
  5.6528623e-001
  5.8052242e-001
  5.9558057e-001
  6.0936811e-001
  6.2106098e-001
  6.3039142e-001
  6.3776363e-001
  6.4415489e-001
  6.5083526e-001
  6.5898921e-001
  6.6935086e-001
  6.8197042e-001
  6.9619834e-001
  7.1089962e-001
  7.2482211e-001
  7.3698310e-001
  7.4693758e-001
  7.5484563e-001
  7.6133889e-001
  7.6726001e-001
  7.7338390e-001
  7.8021187e-001
  7.8787811e-001
  7.9615871e-001
  8.0455576e-001
  8.1243482e-001
  8.1919415e-001
  8.2442485e-001
  8.2800555e-001
  8.3009234e-001
  8.3101376e-001
  8.3112894e-001
  8.3071727e-001
  8.2993665e-001
  8.2883887e-001
  8.2739849e-001
  8.2551426e-001
  8.2297439e-001
  8.1941848e-001
  8.1435197e-001
  8.0725290e-001
  7.9775652e-001
  7.8584004e-001
  7.7190051e-001
  7.5665238e-001
  7.4085751e-001
  7.2499295e-001
  7.0901100e-001
  6.9232036e-001
  6.7402673e-001
  6.5335170e-001
  6.3005369e-001
  6.0464755e-001
  5.7828823e-001
  5.5233587e-001
  5.2779312e-001
  5.0489483e-001
  4.8306266e-001
  4.6124053e-001
  4.3842663e-001
  4.1413718e-001
  3.8860404e-001
  3.6265227e-001
  3.3733776e-001
  3.1350370e-001
  2.9143402e-001
  2.7074756e-001
  2.5059088e-001
  2.3006375e-001
  2.0869184e-001
  1.8671085e-001
  1.6499450e-001
  1.4463593e-001
  1.2638755e-001
  1.1025739e-001
  9.5483184e-002
  8.0899308e-002
  6.5499404e-002
  4.8900805e-002
  3.1482656e-002
  1.4150870e-002
 -2.1256750e-003
 -1.6763022e-002
 -2.9781974e-002
 -4.1721264e-002
 -5.3322900e-002
 -6.5170413e-002
 -7.7460261e-002
 -8.9991237e-002
 -1.0232842e-001
 -1.1401776e-001
 -1.2473705e-001
 -1.3434292e-001
 -1.4284441e-001
 -1.5035533e-001
 -1.5705412e-001
 -1.6314873e-001
 -1.6883234e-001
 -1.7422723e-001
 -1.7933180e-001
 -1.8399575e-001
 -1.8794592e-001
 -1.9087244e-001
 -1.9256354e-001
 -1.9304939e-001
 -1.9269077e-001
 -1.9214431e-001
 -1.9217066e-001
 -1.9333064e-001
 -1.9570239e-001
 -1.9878570e-001
 -2.0168355e-001
 -2.0349349e-001
 -2.0370826e-001
 -2.0241791e-001
 -2.0022943e-001
 -1.9798159e-001
 -1.9642396e-001
 -1.9600901e-001
 -1.9685230e-001
 -1.9881798e-001
 -2.0163768e-001
 -2.0498532e-001
 -2.0848743e-001
 -2.1170963e-001
 -2.1418479e-001
 -2.1552069e-001
 -2.1556064e-001
 -2.1451324e-001
 -2.1295824e-001
 -2.1168504e-001
 -2.1140563e-001
 -2.1245913e-001
 -2.1464780e-001
 -2.1729625e-001
 -2.1952107e-001
 -2.2058791e-001
 -2.2018313e-001
 -2.1847597e-001
 -2.1596935e-001
 -2.1325197e-001
 -2.1079559e-001
 -2.0888252e-001
 -2.0765210e-001
 -2.0718962e-001
 -2.0757457e-001
 -2.0885020e-001
 -2.1093811e-001
 -2.1356566e-001
 -2.1627236e-001
 -2.1851505e-001
 -2.1983007e-001
 -2.1997511e-001
 -2.1898794e-001
 -2.1715032e-001
 -2.1489425e-001
 -2.1269974e-001
 -2.1100788e-001
 -2.1014005e-001
 -2.1020833e-001
 -2.1103036e-001
 -2.1210073e-001
 -2.1268210e-001
 -2.1203684e-001
 -2.0973372e-001
 -2.0588731e-001
 -2.0118649e-001
 -1.9666456e-001
 -1.9330424e-001
 -1.9166527e-001
 -1.9170997e-001
 -1.9289466e-001
 -1.9445976e-001
 -1.9576436e-001
 -1.9651137e-001
 -1.9678303e-001
 -1.9690479e-001
 -1.9722823e-001
 -1.9794595e-001
 -1.9902137e-001
 -2.0025344e-001
 -2.0142790e-001
 -2.0246449e-001
 -2.0347372e-001
 -2.0468858e-001
 -2.0630816e-001
 -2.0834138e-001
 -2.1054161e-001
 -2.1247728e-001
 -2.1371292e-001
 -2.1401156e-001
 -2.1344796e-001
 -2.1236302e-001
 -2.1118200e-001
 -2.1020479e-001
 -2.0949359e-001
 -2.0891375e-001
 -2.0827989e-001
 -2.0749683e-001
 -2.0660486e-001
 -2.0571714e-001
 -2.0491313e-001
 -2.0417670e-001
 -2.0342821e-001
 -2.0262500e-001
 -2.0184574e-001
 -2.0127631e-001
 -2.0108439e-001
 -2.0126136e-001
 -2.0155402e-001
 -2.0156499e-001
 -2.0099107e-001
 -1.9986458e-001
 -1.9863897e-001
 -1.9803732e-001
 -1.9871564e-001
 -2.0090344e-001
 -2.0421200e-001
 -2.0772849e-001
 -2.1037373e-001
 -2.1136418e-001
 -2.1056124e-001
 -2.0854619e-001
 -2.0639025e-001
 -2.0522188e-001
 -2.0576805e-001
 -2.0804755e-001
 -2.1133450e-001
 -2.1441197e-001
 -2.1602682e-001
 -2.1537538e-001
 -2.1242843e-001
 -2.0795669e-001
 -2.0323293e-001
 -1.9952397e-001
 -1.9758595e-001
 -1.9738410e-001
 -1.9816112e-001
 -1.9881876e-001
 -1.9843232e-001
 -1.9666102e-001
 -1.9387548e-001
 -1.9096481e-001
 -1.8893338e-001
 -1.8847729e-001
 -1.8971407e-001
 -1.9215266e-001
 -1.9488993e-001
 -1.9694796e-001
 -1.9763184e-001
 -1.9678541e-001
 -1.9485432e-001
 -1.9273267e-001
 -1.9144834e-001
 -1.9179827e-001
 -1.9405471e-001
 -1.9783649e-001
 -2.0219402e-001
 -2.0590077e-001
 -2.0787534e-001
 -2.0759055e-001
 -2.0530050e-001
 -2.0197106e-001
 -1.9892407e-001
 -1.9733847e-001
 -1.9781905e-001
 -2.0020600e-001
 -2.0368156e-001
 -2.0710150e-001
 -2.0940606e-001
 -2.0996315e-001
 -2.0874416e-001
 -2.0629700e-001
 -2.0354160e-001
 -2.0145972e-001
 -2.0077799e-001
 -2.0174500e-001
 -2.0407408e-001
 -2.0706600e-001
 -2.0986005e-001
 -2.1171945e-001
 -2.1225521e-001
 -2.1152466e-001
 -2.0998325e-001
 -2.0830818e-001
 -2.0714759e-001
 -2.0687750e-001
 -2.0745655e-001
 -2.0844420e-001
 -2.0918970e-001
 -2.0912139e-001
 -2.0800621e-001
 -2.0605150e-001
 -2.0379738e-001
 -2.0185328e-001
 -2.0060796e-001
 -2.0005553e-001
 -1.9982932e-001
 -1.9943491e-001
 -1.9856198e-001
 -1.9730002e-001
 -1.9613344e-001
 -1.9571919e-001
 -1.9656355e-001
 -1.9874759e-001
 -2.0181016e-001
 -2.0483663e-001
 -2.0674717e-001
 -2.0671616e-001
 -2.0457798e-001
 -2.0102527e-001
 -1.9745152e-001
 -1.9544449e-001
 -1.9612586e-001
 -1.9963888e-001
 -2.0503486e-001
 -2.1062180e-001
 -2.1461548e-001
 -2.1580002e-001
 -2.1392892e-001
 -2.0974356e-001
 -2.0465181e-001
 -2.0021619e-001
 -1.9763815e-001
 -1.9740651e-001
 -1.9921205e-001
 -2.0213004e-001
 -2.0497829e-001
 -2.0671028e-001
 -2.0671652e-001
 -2.0496137e-001
 -2.0194234e-001
 -1.9850278e-001
 -1.9555615e-001
 -1.9379803e-001
 -1.9348913e-001
 -1.9438075e-001
 -1.9581679e-001
 -1.9698845e-001
 -1.9725377e-001
 -1.9639535e-001
 -1.9470363e-001
 -1.9284441e-001
 -1.9156481e-001
 -1.9136572e-001
 -1.9228562e-001
 -1.9389321e-001
 -1.9549128e-001
 -1.9643480e-001
 -1.9641030e-001
 -1.9554543e-001
 -1.9430742e-001
 -1.9325870e-001
 -1.9280572e-001
 -1.9306637e-001
 -1.9390060e-001
 -1.9504905e-001
 -1.9627125e-001
 -1.9740275e-001
 -1.9832900e-001
 -1.9893428e-001
 -1.9908440e-001
 -1.9865975e-001
 -1.9761818e-001
 -1.9605710e-001
 -1.9424955e-001
 -1.9263092e-001
 -1.9171864e-001
 -1.9197079e-001
 -1.9362517e-001
 -1.9658147e-001
 -2.0037819e-001
 -2.0428245e-001
 -2.0747418e-001
 -2.0927777e-001
 -2.0937823e-001
 -2.0795561e-001
 -2.0568102e-001
 -2.0354103e-001
 -2.0250549e-001
 -2.0313041e-001
 -2.0526395e-001
 -2.0803276e-001
 -2.1017717e-001
 -2.1061295e-001
 -2.0894220e-001
 -2.0563613e-001
 -2.0178463e-001
 -1.9854951e-001
 -1.9661881e-001
 -1.9594134e-001
 -1.9584834e-001
 -1.9545736e-001
 -1.9412579e-001
 -1.9173319e-001
 -1.8868990e-001
 -1.8571551e-001
 -1.8352374e-001
 -1.8255833e-001
 -1.8286748e-001
 -1.8413083e-001
 -1.8579867e-001
 -1.8728103e-001
 -1.8812620e-001
 -1.8814787e-001
 -1.8748471e-001
 -1.8659148e-001
 -1.8615788e-001
 -1.8694414e-001
 -1.8954055e-001
 -1.9411069e-001
 -2.0023060e-001
 -2.0693426e-001
 -2.1299470e-001
 -2.1734983e-001
 -2.1949691e-001
 -2.1968154e-001
 -2.1879313e-001
 -2.1800241e-001
 -2.1828635e-001
 -2.2004026e-001
 -2.2294681e-001
 -2.2615818e-001
 -2.2869781e-001
 -2.2988177e-001
 -2.2955950e-001
 -2.2808156e-001
 -2.2605522e-001
 -2.2405077e-001
 -2.2241422e-001
 -2.2124451e-001
 -2.2048238e-001
 -2.2000861e-001
 -2.1968098e-001
 -2.1931368e-001
 -2.1865952e-001
 -2.1745412e-001
 -2.1553088e-001
 -2.1295338e-001
 -2.1007962e-001
 -2.0748996e-001
 -2.0577646e-001
 -2.0527530e-001
 -2.0587673e-001
 -2.0702479e-001
 -2.0792431e-001
 -2.0786225e-001
 -2.0649575e-001
 -2.0398855e-001
 -2.0095887e-001
 -1.9827460e-001
 -1.9676756e-001
 -1.9695102e-001
 -1.9883209e-001
 -2.0189813e-001
 -2.0529861e-001
 -2.0815493e-001
 -2.0986918e-001
 -2.1031336e-001
 -2.0984690e-001
 -2.0917675e-001
 -2.0911002e-001
 -2.1026456e-001
 -2.1281897e-001
 -2.1639529e-001
 -2.2014590e-001
 -2.2304262e-001
 -2.2426911e-001
 -2.2355517e-001
 -2.2130774e-001
 -2.1848030e-001
 -2.1623288e-001
 -2.1551329e-001
 -2.1671056e-001
 -2.1949918e-001
 -2.2292885e-001
 -2.2573950e-001
 -2.2680974e-001
 -2.2559449e-001
 -2.2239067e-001
 -2.1830720e-001
 -2.1491300e-001
 -2.1366773e-001
 -2.1534807e-001
 -2.1970624e-001
 -2.2551738e-001
 -2.3101595e-001
 -2.3455533e-001
 -2.3522119e-001
 -2.3314078e-001
 -2.2936183e-001
 -2.2537324e-001
 -2.2250414e-001
 -2.2147727e-001
 -2.2228347e-001
 -2.2436141e-001
 -2.2692766e-001
 -2.2928138e-001
 -2.3098434e-001
 -2.3190812e-001
 -2.3218543e-001
 -2.3210333e-001
 -2.3197075e-001
 -2.3199997e-001
 -2.3225027e-001
 -2.3266529e-001
 -2.3318689e-001
 -2.3386959e-001
 -2.3489776e-001
 -2.3645828e-001
 -2.3852641e-001
 -2.4071042e-001
 -2.4229515e-001
 -2.4251524e-001
 -2.4094313e-001
 -2.3779105e-001
 -2.3395031e-001
 -2.3070748e-001
 -2.2922676e-001
 -2.3001254e-001
 -2.3261348e-001
 -2.3575377e-001
 -2.3788009e-001
 -2.3788299e-001
 -2.3562976e-001
 -2.3202798e-001
 -2.2858872e-001
 -2.2672592e-001
 -2.2715225e-001
 -2.2964825e-001
 -2.3326006e-001
 -2.3676624e-001
 -2.3916109e-001
 -2.3995306e-001
 -2.3920989e-001
 -2.3740858e-001
 -2.3520619e-001
 -2.3322811e-001
 -2.3191505e-001
 -2.3143171e-001
 -2.3163828e-001
 -2.3213715e-001
 -2.3239937e-001
 -2.3194518e-001
 -2.3052041e-001
 -2.2819948e-001
 -2.2536725e-001
 -2.2257916e-001
 -2.2035194e-001
 -2.1896721e-001
 -2.1836185e-001
 -2.1814171e-001
 -2.1771277e-001
 -2.1649017e-001
 -2.1412038e-001
 -2.1063333e-001
 -2.0645034e-001
 -2.0222358e-001
 -1.9856238e-001
 -1.9576293e-001
 -1.9366150e-001
 -1.9167329e-001
 -1.8899409e-001
 -1.8487699e-001
 -1.7887883e-001
 -1.7099744e-001
 -1.6166924e-001
 -1.5164239e-001
 -1.4176802e-001
 -1.3276343e-001
 -1.2500628e-001
 -1.1842123e-001
 -1.1250659e-001
 -1.0650512e-001
 -9.9664314e-002
 -9.1492756e-002
 -8.1925390e-002
 -7.1349220e-002
 -6.0485287e-002
 -5.0158156e-002
 -4.1014196e-002
 -3.3274686e-002
 -2.6614201e-002
 -2.0222474e-002
 -1.3043837e-002
 -4.1194457e-003
  7.0865827e-003
  2.0500253e-002
  3.5473450e-002
  5.1043401e-002
  6.6313170e-002
  8.0779532e-002
  9.4453004e-002
  1.0772485e-001
  1.2107129e-001
  1.3476009e-001
  1.4869856e-001
  1.6246267e-001
  1.7544792e-001
  1.8704477e-001
  1.9677011e-001
  2.0433534e-001
  2.0965652e-001
  2.1281039e-001
  2.1394232e-001
  2.1315904e-001
  2.1047207e-001
  2.0585393e-001
  1.9940114e-001
  1.9150338e-001
  1.8287469e-001
  1.7436767e-001
  1.6663793e-001
  1.5985360e-001
  1.5365528e-001
  1.4743643e-001
  1.4080776e-001
  1.3396336e-001
  1.2768815e-001
  1.2294471e-001
  1.2024508e-001
  1.1918258e-001
  1.1844329e-001
  1.1634751e-001
  1.1164865e-001
  1.0415257e-001
  9.4820736e-002
  8.5312305e-002
  7.7212981e-002
  7.1331607e-002
  6.7375838e-002
  6.4112201e-002
  5.9888902e-002
  5.3257738e-002
  4.3430503e-002
  3.0428034e-002
  1.4946964e-002
 -1.9148682e-003
 -1.8923086e-002
 -3.4890251e-002
 -4.8807056e-002
 -5.9995078e-002
 -6.8314135e-002
 -7.4363051e-002
 -7.9536891e-002
 -8.5810604e-002
 -9.5223369e-002
 -1.0919406e-001
 -1.2792234e-001
 -1.5014546e-001
 -1.7340294e-001
 -1.9475801e-001
 -2.1173162e-001
 -2.2311619e-001
 -2.2938455e-001
 -2.3255515e-001
 -2.3554765e-001
 -2.4121825e-001
 -2.5138216e-001
 -2.6617072e-001
 -2.8397758e-001
 -3.0202519e-001
 -3.1732583e-001
 -3.2765828e-001
 -3.3220631e-001
 -3.3168173e-001
 -3.2797538e-001
 -3.2352860e-001
 -3.2064395e-001
 -3.2089725e-001
 -3.2475478e-001
 -3.3147714e-001
 -3.3936324e-001
 -3.4630155e-001
 -3.5046520e-001
 -3.5089416e-001
 -3.4773420e-001
 -3.4205331e-001
 -3.3535624e-001
 -3.2905187e-001
 -3.2411750e-001
 -3.2105362e-001
 -3.2002761e-001
 -3.2099550e-001
 -3.2365173e-001
 -3.2725527e-001
 -3.3056234e-001
 -3.3209159e-001
 -3.3072133e-001
 -3.2632984e-001
 -3.2007307e-001
 -3.1406088e-001
 -3.1053679e-001
 -3.1095519e-001
 -3.1540346e-001
 -3.2262099e-001
 -3.3055934e-001
 -3.3718621e-001
 -3.4116819e-001
 -3.4217045e-001
 -3.4070740e-001
 -3.3767238e-001
 -3.3379208e-001
 -3.2925520e-001
 -3.2365999e-001
 -3.1626530e-001
 -3.0638839e-001
 -2.9373496e-001
 -2.7849282e-001
 -2.6114146e-001
 -2.4206808e-001
 -2.2117618e-001
 -1.9769411e-001
 -1.7032654e-001
 -1.3775338e-001
 -9.9310261e-002
 -5.5559822e-002
 -8.4603072e-003
  3.9020664e-002
  8.3769417e-002
  1.2358205e-001
  1.5804951e-001
  1.8899428e-001
  2.2037254e-001
  2.5774075e-001
  3.0747820e-001
  3.7594264e-001
  4.6865795e-001
  5.8955387e-001
  7.4025088e-001
  9.1943134e-001
  1.1224376e+000
  1.3413284e+000
  1.5656339e+000
  1.7839152e+000
  1.9859321e+000
  2.1648373e+000
  2.3185537e+000
  2.4495760e+000
  2.5629463e+000
  2.6629062e+000
  2.7494080e+000
  2.8159502e+000
  2.8498943e+000
  2.8355587e+000
  2.7592546e+000
  2.6144924e+000
  2.4053339e+000
  2.1464946e+000
  1.8600872e+000
  1.5702428e+000
  1.2975947e+000
  1.0554464e+000
  8.4856665e-001
  6.7446486e-001
  5.2622647e-001
  3.9573746e-001
  2.7634400e-001
  1.6441818e-001
  5.9708640e-002
 -3.5361427e-002
 -1.1711094e-001
 -1.8227985e-001
 -2.2946256e-001
 -2.5984597e-001
 -2.7702296e-001
 -2.8599862e-001
 -2.9183305e-001
 -2.9848658e-001
 -3.0826618e-001
 -3.2191319e-001
 -3.3905051e-001
 -3.5861784e-001
 -3.7908399e-001
 -3.9847994e-001
 -4.1445043e-001
 -4.2449356e-001
 -4.2640708e-001
 -4.1880916e-001
 -4.0153890e-001
 -3.7578233e-001
 -3.4387372e-001
 -3.0883650e-001
 -2.7381016e-001
 -2.4153665e-001
 -2.1404375e-001
 -1.9256956e-001
 -1.7766124e-001
 -1.6931168e-001
 -1.6702120e-001
 -1.6977226e-001
 -1.7601276e-001
 -1.8377424e-001
 -1.9097963e-001
 -1.9587393e-001
 -1.9742707e-001
 -1.9556081e-001
 -1.9111908e-001
 -1.8558370e-001
 -1.8060482e-001
 -1.7747393e-001
 -1.7670905e-001
 -1.7791006e-001
 -1.7994977e-001
 -1.8142486e-001
 -1.8118223e-001
 -1.7872148e-001
 -1.7434532e-001
 -1.6903089e-001
 -1.6408126e-001
 -1.6067351e-001
 -1.5944912e-001
 -1.6028731e-001
 -1.6235077e-001
 -1.6439533e-001
 -1.6522375e-001
 -1.6409784e-001
 -1.6094934e-001
 -1.5633579e-001
 -1.5120415e-001
 -1.4658059e-001
 -1.4328904e-001
 -1.4175773e-001
 -1.4194318e-001
 -1.4338102e-001
 -1.4534381e-001
 -1.4705118e-001
 -1.4786530e-001
 -1.4742383e-001
 -1.4568986e-001
 -1.4291681e-001
 -1.3954131e-001
 -1.3603841e-001
 -1.3278887e-001
 -1.3000241e-001
 -1.2771627e-001
 -1.2585714e-001
 -1.2432559e-001
 -1.2304703e-001
 -1.2194772e-001
 -1.2086392e-001
 -1.1945260e-001
 -1.1719572e-001
 -1.1354774e-001
 -1.0818579e-001
 -1.0124351e-001
 -9.3396262e-002
 -8.5726583e-002
 -7.9398825e-002
 -7.5258547e-002
 -7.3507546e-002
 -7.3581232e-002
 -7.4283911e-002
 -7.4144320e-002
 -7.1872121e-002
 -6.6762080e-002
 -5.8922366e-002
 -4.9273789e-002
 -3.9331884e-002
 -3.0821159e-002
 -2.5199557e-002
 -2.3212041e-002
 -2.4623820e-002
 -2.8257508e-002
 -3.2356339e-002
 -3.5158787e-002
 -3.5472736e-002
 -3.3034609e-002
 -2.8531853e-002
 -2.3306170e-002
 -1.8870428e-002
 -1.6416769e-002
 -1.6466108e-002
 -1.8744623e-002
 -2.2302690e-002
 -2.5826346e-002
 -2.8036676e-002
 -2.8046975e-002
 -2.5567591e-002
 -2.0907912e-002
 -1.4798618e-002
 -8.1176008e-003
 -1.6295142e-003
  4.1688085e-003
  9.0623820e-003
  1.3029415e-002
  1.6135961e-002
  1.8491271e-002
  2.0279829e-002
  2.1817048e-002
  2.3551801e-002
  2.5974698e-002
  2.9454569e-002
  3.4072314e-002
  3.9529807e-002
  4.5186088e-002
  5.0227038e-002
  5.3923412e-002
  5.5895247e-002
  5.6293407e-002
  5.5829165e-002
  5.5617460e-002
  5.6847602e-002
  6.0363091e-002
  6.6303597e-002
  7.3984668e-002
  8.2116138e-002
  8.9301895e-002
  9.4607365e-002
  9.7929064e-002
  9.9995213e-002
  1.0201502e-001
  1.0516333e-001
  1.1014253e-001
  1.1698938e-001
  1.2515404e-001
  1.3376193e-001
  1.4193186e-001
  1.4905364e-001
  1.5497133e-001
  1.6003796e-001
  1.6501485e-001
  1.7081947e-001
  1.7819013e-001
  1.8739716e-001
  1.9813066e-001
  2.0961803e-001
  2.2091708e-001
  2.3125178e-001
  2.4023944e-001
  2.4791121e-001
  2.5454660e-001
  2.6046929e-001
  2.6598376e-001
  2.7151070e-001
  2.7777749e-001
  2.8580934e-001
  2.9657065e-001
  3.1037356e-001
  3.2640416e-001
  3.4272924e-001
  3.5691133e-001
  3.6701794e-001
  3.7256644e-001
  3.7493293e-001
  3.7697956e-001
  3.8200828e-001
  3.9246113e-001
  4.0891111e-001
  4.2976525e-001
  4.5179694e-001
  4.7128779e-001
  4.8534126e-001
  4.9289936e-001
  4.9512076e-001
  4.9499323e-001
  4.9629642e-001
  5.0225473e-001
  5.1436305e-001
  5.3185284e-001
  5.5204473e-001
  5.7146065e-001
  5.8721521e-001
  5.9807826e-001
  6.0478331e-001
  6.0953463e-001
  6.1501356e-001
  6.2333864e-001
  6.3537519e-001
  6.5059403e-001
  6.6744226e-001
  6.8400697e-001
  6.9868951e-001
  7.1066539e-001
  7.2002284e-001
  7.2758971e-001
  7.3454692e-001
  7.4198078e-001
  7.5053119e-001
  7.6023956e-001
  7.7061297e-001
  7.8084970e-001
  7.9014105e-001
  7.9796091e-001
  8.0425749e-001
  8.0947160e-001
  8.1435084e-001
  8.1961344e-001
  8.2560441e-001
  8.3211517e-001
  8.3846738e-001
  8.4382254e-001
  8.4755671e-001
  8.4951051e-001
  8.4999974e-001
  8.4960002e-001
  8.4882767e-001
  8.4787683e-001
  8.4653206e-001
  8.4428108e-001
  8.4055236e-001
  8.3494478e-001
  8.2733355e-001
  8.1782091e-001
  8.0659736e-001
  7.9382457e-001
  7.7961557e-001
  7.6410535e-001
  7.4753934e-001
  7.3030003e-001
  7.1283541e-001
  6.9550904e-001
  6.7842843e-001
  6.6132006e-001
  6.4351539e-001
  6.2409465e-001
  6.0219253e-001
  5.7739693e-001
  5.5009169e-001
  5.2155640e-001
  4.9368729e-001
  4.6835559e-001
  4.4662583e-001
  4.2820228e-001
  4.1142801e-001
  3.9390518e-001
  3.7347780e-001
  3.4913102e-001
  3.2142049e-001
  2.9228565e-001
  2.6436323e-001
  2.4008253e-001
  2.2086199e-001
  2.0666761e-001
  1.9607027e-001
  1.8677503e-001
  1.7643175e-001
  1.6343601e-001
  1.4743950e-001
  1.2940183e-001
  1.1117820e-001
  9.4793870e-002
  8.1670317e-002
  7.2100948e-002
  6.5187895e-002
  5.9255610e-002
  5.2542754e-002
  4.3862897e-002
  3.2972287e-002
  2.0540642e-002
  7.7908648e-003
 -4.0149069e-003
 -1.4035111e-002
 -2.2093298e-002
 -2.8647503e-002
 -3.4534935e-002
 -4.0614559e-002
 -4.7445652e-002
 -5.5109813e-002
 -6.3223923e-002
 -7.1120439e-002
 -7.8113143e-002
 -8.3743649e-002
 -8.7924025e-002
 -9.0940250e-002
 -9.3332934e-002
 -9.5704536e-002
 -9.8514977e-002
 -1.0192874e-001
 -1.0576663e-001
 -1.0958706e-001
 -1.1287430e-001
 -1.1526222e-001
 -1.1669621e-001
 -1.1745440e-001
 -1.1800978e-001
 -1.1879253e-001
 -1.1997104e-001
 -1.2137299e-001
 -1.2259980e-001
 -1.2327293e-001
 -1.2326324e-001
 -1.2276236e-001
 -1.2216151e-001
 -1.2182894e-001
 -1.2193132e-001
 -1.2239612e-001
 -1.2300954e-001
 -1.2356515e-001
 -1.2396991e-001
 -1.2426421e-001
 -1.2457334e-001
 -1.2503631e-001
 -1.2574840e-001
 -1.2673158e-001
 -1.2793479e-001
 -1.2926451e-001
 -1.3063752e-001
 -1.3202782e-001
 -1.3346860e-001
 -1.3499121e-001
 -1.3653414e-001
 -1.3789541e-001
 -1.3879095e-001
 -1.3901083e-001
 -1.3858115e-001
 -1.3780920e-001
 -1.3715333e-001
 -1.3698006e-001
 -1.3735723e-001
 -1.3801389e-001
 -1.3848909e-001
 -1.3837535e-001
 -1.3751518e-001
 -1.3605067e-001
 -1.3431842e-001
 -1.3266529e-001
 -1.3129188e-001
 -1.3020306e-001
 -1.2927682e-001
 -1.2839321e-001
 -1.2753506e-001
 -1.2680369e-001
 -1.2636118e-001
 -1.2635954e-001
 -1.2690729e-001
 -1.2807411e-001
 -1.2989505e-001
 -1.3233966e-001
 -1.3525149e-001
 -1.3830840e-001
 -1.4106643e-001
 -1.4310977e-001
 -1.4425061e-001
 -1.4466117e-001
 -1.4483417e-001
 -1.4536367e-001
 -1.4665180e-001
 -1.4869464e-001
 -1.5105263e-001
 -1.5300834e-001
 -1.5382890e-001
 -1.5302423e-001
 -1.5051844e-001
 -1.4669594e-001
 -1.4231727e-001
 -1.3832211e-001
 -1.3556334e-001
 -1.3454624e-001
 -1.3526405e-001
 -1.3720313e-001
 -1.3953671e-001
 -1.4144669e-001
 -1.4244218e-001
 -1.4252308e-001
 -1.4209691e-001
 -1.4167993e-001
 -1.4153579e-001
 -1.4145429e-001
 -1.4081273e-001
 -1.3891658e-001
 -1.3545352e-001
 -1.3080614e-001
 -1.2601405e-001
 -1.2234916e-001
 -1.2068476e-001
 -1.2098054e-001
 -1.2218156e-001
 -1.2263621e-001
 -1.2087207e-001
 -1.1636508e-001
 -1.0991075e-001
 -1.0338247e-001
 -9.8964393e-002
 -9.8217133e-002
 -1.0142180e-001
 -1.0750042e-001
 -1.1451447e-001
 -1.2047067e-001
 -1.2405465e-001
 -1.2499907e-001
 -1.2399587e-001
 -1.2226818e-001
 -1.2103690e-001
 -1.2111184e-001
 -1.2273177e-001
 -1.2563939e-001
 -1.2928453e-001
 -1.3303669e-001
 -1.3633719e-001
 -1.3878148e-001
 -1.4015784e-001
 -1.4047093e-001
 -1.3996055e-001
 -1.3909805e-001
 -1.3852132e-001
 -1.3887580e-001
 -1.4057441e-001
 -1.4355775e-001
 -1.4718423e-001
 -1.5035996e-001
 -1.5191406e-001
 -1.5108264e-001
 -1.4787491e-001
 -1.4312826e-001
 -1.3820607e-001
 -1.3446515e-001
 -1.3272205e-001
 -1.3293742e-001
 -1.3423657e-001
 -1.3524949e-001
 -1.3463517e-001
 -1.3159230e-001
 -1.2616930e-001
 -1.1926386e-001
 -1.1231673e-001
 -1.0681605e-001
 -1.0379841e-001
 -1.0353103e-001
 -1.0548448e-001
 -1.0859173e-001
 -1.1168510e-001
 -1.1394173e-001
 -1.1516579e-001
 -1.1579414e-001
 -1.1662331e-001
 -1.1838348e-001
 -1.2136865e-001
 -1.2531425e-001
 -1.2958378e-001
 -1.3355071e-001
 -1.3694709e-001
 -1.3997180e-001
 -1.4309616e-001
 -1.4668587e-001
 -1.5066693e-001
 -1.5443686e-001
 -1.5708187e-001
 -1.5778950e-001
 -1.5624264e-001
 -1.5279710e-001
 -1.4836441e-001
 -1.4407099e-001
 -1.4086142e-001
 -1.3921372e-001
 -1.3905636e-001
 -1.3987473e-001
 -1.4092815e-001
 -1.4148784e-001
 -1.4103352e-001
 -1.3937785e-001
 -1.3670556e-001
 -1.3352274e-001
 -1.3052310e-001
 -1.2839888e-001
 -1.2764322e-001
 -1.2839429e-001
 -1.3036341e-001
 -1.3288214e-001
 -1.3508780e-001
 -1.3622028e-001
 -1.3593080e-001
 -1.3446032e-001
 -1.3257750e-001
 -1.3127236e-001
 -1.3132516e-001
 -1.3294518e-001
 -1.3565629e-001
 -1.3849614e-001
 -1.4044143e-001
 -1.4085571e-001
 -1.3974622e-001
 -1.3771874e-001
 -1.3567254e-001
 -1.3439755e-001
 -1.3426567e-001
 -1.3514329e-001
 -1.3653232e-001
 -1.3783831e-001
 -1.3862079e-001
 -1.3871953e-001
 -1.3823492e-001
 -1.3741840e-001
 -1.3656112e-001
 -1.3594595e-001
 -1.3586431e-001
 -1.3663606e-001
 -1.3855862e-001
 -1.4176912e-001
 -1.4608924e-001
 -1.5096628e-001
 -1.5558497e-001
 -1.5912635e-001
 -1.6105709e-001
 -1.6130519e-001
 -1.6023564e-001
 -1.5845118e-001
 -1.5654028e-001
 -1.5490964e-001
 -1.5376171e-001
 -1.5317089e-001
 -1.5315989e-001
 -1.5370567e-001
 -1.5467589e-001
 -1.5575522e-001
 -1.5643578e-001
 -1.5611786e-001
 -1.5431473e-001
 -1.5090345e-001
 -1.4632198e-001
 -1.4159397e-001
 -1.3809611e-001
 -1.3709327e-001
 -1.3921506e-001
 -1.4412883e-001
 -1.5059358e-001
 -1.5688430e-001
 -1.6138960e-001
 -1.6313084e-001
 -1.6203273e-001
 -1.5889851e-001
 -1.5512430e-001
 -1.5223149e-001
 -1.5134898e-001
 -1.5283255e-001
 -1.5619419e-001
 -1.6038326e-001
 -1.6427434e-001
 -1.6710855e-001
 -1.6868916e-001
 -1.6929905e-001
 -1.6945360e-001
 -1.6964007e-001
 -1.7014528e-001
 -1.7101130e-001
 -1.7211712e-001
 -1.7334523e-001
 -1.7474483e-001
 -1.7658217e-001
 -1.7921247e-001
 -1.8281225e-001
 -1.8711355e-001
 -1.9130882e-001
 -1.9422416e-001
 -1.9472934e-001
 -1.9223075e-001
 -1.8702578e-001
 -1.8031493e-001
 -1.7379260e-001
 -1.6894846e-001
 -1.6640535e-001
 -1.6565603e-001
 -1.6537196e-001
 -1.6413574e-001
 -1.6119604e-001
 -1.5682893e-001
 -1.5212701e-001
 -1.4837578e-001
 -1.4639944e-001
 -1.4623433e-001
 -1.4725677e-001
 -1.4862317e-001
 -1.4973703e-001
 -1.5049198e-001
 -1.5119588e-001
 -1.5225691e-001
 -1.5382640e-001
 -1.5560080e-001
 -1.5689162e-001
 -1.5693016e-001
 -1.5525200e-001
 -1.5196476e-001
 -1.4776075e-001
 -1.4366854e-001
 -1.4067282e-001
 -1.3939066e-001
 -1.3993917e-001
 -1.4200885e-001
 -1.4505226e-001
 -1.4847260e-001
 -1.5174880e-001
 -1.5450502e-001
 -1.5655938e-001
 -1.5795536e-001
 -1.5893873e-001
 -1.5984894e-001
 -1.6095006e-001
 -1.6228197e-001
 -1.6361938e-001
 -1.6457593e-001
 -1.6481196e-001
 -1.6423998e-001
 -1.6311066e-001
 -1.6191638e-001
 -1.6114632e-001
 -1.6101440e-001
 -1.6130949e-001
 -1.6146324e-001
 -1.6081649e-001
 -1.5895058e-001
 -1.5590934e-001
 -1.5220512e-001
 -1.4863406e-001
 -1.4602504e-001
 -1.4504163e-001
 -1.4606968e-001
 -1.4914631e-001
 -1.5388773e-001
 -1.5944369e-001
 -1.6457029e-001
 -1.6790177e-001
 -1.6840399e-001
 -1.6586031e-001
 -1.6115527e-001
 -1.5615175e-001
 -1.5311685e-001
 -1.5387966e-001
 -1.5907542e-001
 -1.6783661e-001
 -1.7810534e-001
 -1.8744795e-001
 -1.9399957e-001
 -1.9709718e-001
 -1.9732681e-001
 -1.9602298e-001
 -1.9453146e-001
 -1.9362651e-001
 -1.9333995e-001
 -1.9321240e-001
 -1.9275598e-001
 -1.9183008e-001
 -1.9071507e-001
 -1.8987574e-001
 -1.8960782e-001
 -1.8982352e-001
 -1.9011188e-001
 -1.9000507e-001
 -1.8925159e-001
 -1.8792866e-001
 -1.8636404e-001
 -1.8495728e-001
 -1.8401542e-001
 -1.8367331e-001
 -1.8391494e-001
 -1.8467562e-001
 -1.8597198e-001
 -1.8797957e-001
 -1.9098394e-001
 -1.9519136e-001
 -2.0047578e-001
 -2.0620746e-001
 -2.1130498e-001
 -2.1455653e-001
 -2.1510289e-001
 -2.1285565e-001
 -2.0862593e-001
 -2.0387183e-001
 -2.0015774e-001
 -1.9856083e-001
 -1.9929316e-001
 -2.0170708e-001
 -2.0465296e-001
 -2.0697510e-001
 -2.0789013e-001
 -2.0711355e-001
 -2.0477183e-001
 -2.0123116e-001
 -1.9695823e-001
 -1.9245958e-001
 -1.8828073e-001
 -1.8500441e-001
 -1.8318353e-001
 -1.8319452e-001
 -1.8507638e-001
 -1.8845910e-001
 -1.9263776e-001
 -1.9675618e-001
 -2.0000976e-001
 -2.0179717e-001
 -2.0180876e-001
 -2.0008140e-001
 -1.9704541e-001
 -1.9354045e-001
 -1.9072223e-001
 -1.8978638e-001
 -1.9153879e-001
 -1.9598786e-001
 -2.0219631e-001
 -2.0852679e-001
 -2.1320628e-001
 -2.1496654e-001
 -2.1349250e-001
 -2.0951115e-001
 -2.0450079e-001
 -2.0013536e-001
 -1.9767170e-001
 -1.9751144e-001
 -1.9910344e-001
 -2.0121261e-001
 -2.0242796e-001
 -2.0169466e-001
 -1.9867081e-001
 -1.9380656e-001
 -1.8815413e-001
 -1.8299614e-001
 -1.7941879e-001
 -1.7796550e-001
 -1.7848518e-001
 -1.8023334e-001
 -1.8219903e-001
 -1.8353428e-001
 -1.8390170e-001
 -1.8358295e-001
 -1.8330685e-001
 -1.8389207e-001
 -1.8587247e-001
 -1.8925919e-001
 -1.9351975e-001
 -1.9776525e-001
 -2.0106423e-001
 -2.0276383e-001
 -2.0269862e-001
 -2.0120700e-001
 -1.9895191e-001
 -1.9663333e-001
 -1.9473608e-001
 -1.9343425e-001
 -1.9267503e-001
 -1.9235270e-001
 -1.9243727e-001
 -1.9297307e-001
 -1.9396482e-001
 -1.9524590e-001
 -1.9642917e-001
 -1.9698764e-001
 -1.9644081e-001
 -1.9457066e-001
 -1.9157128e-001
 -1.8804941e-001
 -1.8484076e-001
 -1.8268010e-001
 -1.8183937e-001
 -1.8188759e-001
 -1.8169894e-001
 -1.7974504e-001
 -1.7459317e-001
 -1.6544064e-001
 -1.5248148e-001
 -1.3694074e-001
 -1.2072531e-001
 -1.0579583e-001
 -9.3498947e-002
 -8.4136114e-002
 -7.6948790e-002
 -7.0507391e-002
 -6.3308474e-002
 -5.4313379e-002
 -4.3223980e-002
 -3.0429631e-002
 -1.6703650e-002
 -2.8322469e-003
  1.0618353e-002
  2.3285620e-002
  3.4817886e-002
  4.4730323e-002
  5.2526510e-002
  5.8109441e-002
  6.2249874e-002
  6.6746974e-002
  7.4024347e-002
  8.6214669e-002
  1.0412053e-001
  1.2658980e-001
  1.5069967e-001
  1.7276157e-001
  1.8973816e-001
  2.0043407e-001
  2.0591154e-001
  2.0894417e-001
  2.1276692e-001
  2.1968776e-001
  2.3015635e-001
  2.4265099e-001
  2.5437443e-001
  2.6241524e-001
  2.6486970e-001
  2.6147800e-001
  2.5356357e-001
  2.4336259e-001
  2.3306960e-001
  2.2401643e-001
  2.1631588e-001
  2.0908080e-001
  2.0107359e-001
  1.9146543e-001
  1.8035734e-001
  1.6883305e-001
  1.5852377e-001
  1.5088409e-001
  1.4651642e-001
  1.4486436e-001
  1.4442102e-001
  1.4335141e-001
  1.4023816e-001
  1.3462042e-001
  1.2711096e-001
  1.1907284e-001
  1.1201797e-001
  1.0698604e-001
  1.0415093e-001
  1.0279201e-001
  1.0160529e-001
  9.9185826e-002
  9.4462347e-002
  8.6932003e-002
  7.6674360e-002
  6.4224879e-002
  5.0399625e-002
  3.6109298e-002
  2.2158491e-002
  9.0422173e-003
 -3.2010015e-003
 -1.5006093e-002
 -2.7142620e-002
 -4.0468069e-002
 -5.5660641e-002
 -7.3002907e-002
 -9.2251150e-002
 -1.1261305e-001
 -1.3286756e-001
 -1.5164977e-001
 -1.6785800e-001
 -1.8104559e-001
 -1.9161144e-001
 -2.0066029e-001
 -2.0955709e-001
 -2.1936121e-001
 -2.3039366e-001
 -2.4212239e-001
 -2.5339748e-001
 -2.6292101e-001
 -2.6976153e-001
 -2.7372427e-001
 -2.7544277e-001
 -2.7614957e-001
 -2.7720095e-001
 -2.7954142e-001
 -2.8333894e-001
 -2.8795725e-001
 -2.9227698e-001
 -2.9521384e-001
 -2.9619815e-001
 -2.9540973e-001
 -2.9367847e-001
 -2.9210585e-001
 -2.9157958e-001
 -2.9239533e-001
 -2.9414827e-001
 -2.9593219e-001
 -2.9674669e-001
 -2.9592816e-001
 -2.9342283e-001
 -2.8979892e-001
 -2.8600980e-001
 -2.8302064e-001
 -2.8145526e-001
 -2.8139628e-001
 -2.8240226e-001
 -2.8372291e-001
 -2.8462384e-001
 -2.8469511e-001
 -2.8402515e-001
 -2.8317022e-001
 -2.8292167e-001
 -2.8395084e-001
 -2.8647382e-001
 -2.9008737e-001
 -2.9386007e-001
 -2.9664303e-001
 -2.9746240e-001
 -2.9582613e-001
 -2.9182753e-001
 -2.8602116e-001
 -2.7913896e-001
 -2.7176866e-001
 -2.6411184e-001
 -2.5588158e-001
 -2.4633305e-001
 -2.3439310e-001
 -2.1887041e-001
 -1.9873542e-001
 -1.7342077e-001
 -1.4303736e-001
 -1.0839940e-001
 -7.0830834e-002
 -3.1836609e-002
  7.2166850e-003
  4.5301536e-002
  8.1805563e-002
  1.1657057e-001
  1.4999325e-001
  1.8320882e-001
  2.1828596e-001
  2.5833233e-001
  3.0744765e-001
  3.7049666e-001
  4.5266776e-001
  5.5877249e-001
  6.9229031e-001
  8.5428417e-001
  1.0424551e+000
  1.2507002e+000
  1.4695215e+000
  1.6874452e+000
  1.8932609e+000
  2.0784739e+000
  2.2390952e+000
  2.3759515e+000
  2.4931548e+000
  2.5950997e+000
  2.6830543e+000
  2.7527388e+000
  2.7940471e+000
  2.7933039e+000
  2.7374499e+000
  2.6187166e+000
  2.4380460e+000
  2.2059202e+000
  1.9402490e+000
  1.6621236e+000
  1.3910415e+000
  1.1412612e+000
  9.2027935e-001
  7.2942781e-001
  5.6580911e-001
  4.2455111e-001
  3.0063112e-001
  1.8998626e-001
  8.9978601e-002
 -5.9282894e-004
 -8.1767176e-002
 -1.5286959e-001
 -2.1303948e-001
 -2.6174806e-001
 -2.9921282e-001
 -3.2662199e-001
 -3.4610883e-001
 -3.6047383e-001
 -3.7272470e-001
 -3.8555354e-001
 -4.0087619e-001
 -4.1952499e-001
 -4.4113114e-001
 -4.6418183e-001
 -4.8621821e-001
 -5.0415442e-001
 -5.1471437e-001
 -5.1497166e-001
 -5.0293798e-001
 -4.7809620e-001
 -4.4174079e-001
 -3.9698942e-001
 -3.4838080e-001
 -3.0107654e-001
 -2.5981954e-001
 -2.2792402e-001
 -2.0662038e-001
 -1.9499937e-001
 -1.9059409e-001
 -1.9037847e-001
 -1.9177351e-001
 -1.9325450e-001
 -1.9436732e-001
 -1.9528263e-001
 -1.9624816e-001
 -1.9728702e-001
 -1.9824913e-001
 -1.9904474e-001
 -1.9978939e-001
 -2.0072282e-001
 -2.0198358e-001
 -2.0342773e-001
 -2.0461361e-001
 -2.0494269e-001
 -2.0387662e-001
 -2.0115522e-001
 -1.9695054e-001
 -1.9188733e-001
 -1.8688160e-001
 -1.8282100e-001
 -1.8020315e-001
 -1.7890189e-001
 -1.7820436e-001
 -1.7713460e-001
 -1.7491053e-001
 -1.7129128e-001
 -1.6664524e-001
 -1.6174928e-001
 -1.5746394e-001
 -1.5443476e-001
 -1.5289883e-001
 -1.5262552e-001
 -1.5300272e-001
 -1.5324704e-001
 -1.5266071e-001
 -1.5083518e-001
 -1.4773910e-001
 -1.4369312e-001
 -1.3927088e-001
 -1.3516227e-001
 -1.3201239e-001
 -1.3024315e-001
 -1.2988933e-001
 -1.3051907e-001
 -1.3131548e-001
 -1.3134113e-001
 -1.2990756e-001
 -1.2688623e-001
 -1.2279146e-001
 -1.1856340e-001
 -1.1513531e-001
 -1.1298830e-001
 -1.1191096e-001
 -1.1109002e-001
 -1.0950636e-001
 -1.0645301e-001
 -1.0190663e-001
 -9.6546455e-002
 -9.1414339e-002
 -8.7415093e-002
 -8.4926112e-002
 -8.3688432e-002
 -8.2980639e-002
 -8.1948345e-002
 -7.9928578e-002
 -7.6652101e-002
 -7.2282643e-002
 -6.7322393e-002
 -6.2451567e-002
 -5.8364180e-002
 -5.5626916e-002
 -5.4558466e-002
 -5.5130153e-002
 -5.6918937e-002
 -5.9165342e-002
 -6.0964923e-002
 -6.1550817e-002
 -6.0552734e-002
 -5.8106165e-002
 -5.4756087e-002
 -5.1210414e-002
 -4.8074383e-002
 -4.5684631e-002
 -4.4076975e-002
 -4.3040275e-002
 -4.2193102e-002
 -4.1059346e-002
 -3.9153453e-002
 -3.6079668e-002
 -3.1620802e-002
 -2.5779999e-002
 -1.8760051e-002
 -1.0902755e-002
 -2.6335393e-003
  5.5593099e-003
  1.3129934e-002
  1.9523637e-002
  2.4312767e-002
  2.7389374e-002
  2.9107299e-002
  3.0257886e-002
  3.1843394e-002
  3.4728749e-002
  3.9326651e-002
  4.5458550e-002
  5.2448439e-002
  5.9399501e-002
  6.5527818e-002
  7.0412955e-002
  7.4075254e-002
  7.6879417e-002
  7.9344858e-002
  8.1967168e-002
  8.5112737e-002
  8.8982437e-002
  9.3607085e-002
  9.8854265e-002
  1.0445758e-001
  1.1008237e-001
  1.1541432e-001
  1.2023400e-001
  1.2444859e-001
  1.2808337e-001
  1.3126002e-001
  1.3418533e-001
  1.3714920e-001
  1.4051213e-001
  1.4466391e-001
  1.4994668e-001
  1.5654773e-001
  1.6438526e-001
  1.7303755e-001
  1.8178381e-001
  1.8979568e-001
  1.9643569e-001
  2.0153257e-001
  2.0548316e-001
  2.0910310e-001
  2.1328308e-001
  2.1863476e-001
  2.2533802e-001
  2.3327200e-001
  2.4229132e-001
  2.5237968e-001
  2.6351286e-001
  2.7533363e-001
  2.8695319e-001
  2.9715070e-001
  3.0495560e-001
  3.1028900e-001
  3.1425370e-001
  3.1885551e-001
  3.2625893e-001
  3.3791519e-001
  3.5393854e-001
  3.7297554e-001
  3.9260668e-001
  4.1013187e-001
  4.2347055e-001
  4.3187485e-001
  4.3621471e-001
  4.3873163e-001
  4.4233040e-001
  4.4963166e-001
  4.6209600e-001
  4.7952608e-001
  5.0014210e-001
  5.2122312e-001
  5.4007531e-001
  5.5494301e-001
  5.6550979e-001
  5.7283743e-001
  5.7884185e-001
  5.8556827e-001
  5.9454314e-001
  6.0638794e-001
  6.2075714e-001
  6.3656063e-001
  6.5236715e-001
  6.6685665e-001
  6.7919650e-001
  6.8925194e-001
  6.9759375e-001
  7.0531494e-001
  7.1370432e-001
  7.2385208e-001
  7.3628625e-001
  7.5075119e-001
  7.6622295e-001
  7.8119906e-001
  7.9420164e-001
  8.0432249e-001
  8.1157735e-001
  8.1688863e-001
  8.2168310e-001
  8.2728634e-001
  8.3439866e-001
  8.4288279e-001
  8.5191948e-001
  8.6040046e-001
  8.6733558e-001
  8.7209506e-001
  8.7444091e-001
  8.7443003e-001
  8.7231514e-001
  8.6851731e-001
  8.6364457e-001
  8.5846447e-001
  8.5375611e-001
  8.5005568e-001
  8.4740212e-001
  8.4521622e-001
  8.4239220e-001
  8.3758694e-001
  8.2961108e-001
  8.1779133e-001
  8.0219142e-001
  7.8363157e-001
  7.6350637e-001
  7.4344783e-001
  7.2491214e-001
  7.0878854e-001
  6.9513234e-001
  6.8310691e-001
  6.7117598e-001
  6.5752037e-001
  6.4057589e-001
  6.1953560e-001
  5.9465869e-001
  5.6727963e-001
  5.3948832e-001
  5.1353659e-001
  4.9111623e-001
  4.7273196e-001
  4.5741965e-001
  4.4298834e-001
  4.2678314e-001
  4.0672709e-001
  3.8221884e-001
  3.5446425e-001
  3.2604190e-001
  2.9985549e-001
  2.7793007e-001
  2.6060084e-001
  2.4646485e-001
  2.3310356e-001
  2.1821745e-001
  2.0062922e-001
  1.8069946e-001
  1.6001025e-001
  1.4054236e-001
  1.2380017e-001
  1.1030212e-001
  9.9593823e-002
  9.0641554e-002
  8.2318397e-002
  7.3754234e-002
  6.4478775e-002
  5.4410852e-002
  4.3780369e-002
  3.3037040e-002
  2.2754809e-002
  1.3518763e-002
  5.7886186e-003
 -2.4280814e-004
 -4.7527493e-003
 -8.2999242e-003
 -1.1709488e-002
 -1.5845150e-002
 -2.1339371e-002
 -2.8382561e-002
 -3.6652047e-002
 -4.5402841e-002
 -5.3682641e-002
 -6.0603331e-002
 -6.5598919e-002
 -6.8603658e-002
 -7.0087941e-002
 -7.0915711e-002
 -7.2052965e-002
 -7.4235795e-002
 -7.7739347e-002
 -8.2341437e-002
 -8.7474408e-002
 -9.2472888e-002
 -9.6802106e-002
 -1.0018975e-001
 -1.0264518e-001
 -1.0439383e-001
 -1.0576897e-001
 -1.0709934e-001
 -1.0862155e-001
 -1.1043373e-001
 -1.1249068e-001
 -1.1462700e-001
 -1.1659718e-001
 -1.1813549e-001
 -1.1904306e-001
 -1.1928561e-001
 -1.1904941e-001
 -1.1869805e-001
 -1.1862124e-001
 -1.1904310e-001
 -1.1989915e-001
 -1.2085903e-001
 -1.2148461e-001
 -1.2143683e-001
 -1.2063158e-001
 -1.1929110e-001
 -1.1789276e-001
 -1.1704132e-001
 -1.1729120e-001
 -1.1895332e-001
 -1.2194697e-001
 -1.2576813e-001
 -1.2960955e-001
 -1.3259848e-001
 -1.3406430e-001
 -1.3374074e-001
 -1.3183750e-001
 -1.2895977e-001
 -1.2590331e-001
 -1.2340132e-001
 -1.2192100e-001
 -1.2157823e-001
 -1.2217329e-001
 -1.2329676e-001
 -1.2444705e-001
 -1.2513086e-001
 -1.2494917e-001
 -1.2367714e-001
 -1.2133145e-001
 -1.1820018e-001
 -1.1480658e-001
 -1.1179266e-001
 -1.0974145e-001
 -1.0899565e-001
 -1.0955167e-001
 -1.1108597e-001
 -1.1310657e-001
 -1.1515063e-001
 -1.1691919e-001
 -1.1828250e-001
 -1.1917890e-001
 -1.1950289e-001
 -1.1907827e-001
 -1.1774682e-001
 -1.1552102e-001
 -1.1270355e-001
 -1.0988484e-001
 -1.0778630e-001
 -1.0699650e-001
 -1.0771302e-001
 -1.0961496e-001
 -1.1193437e-001
 -1.1370158e-001
 -1.1406354e-001
 -1.1255479e-001
 -1.0923713e-001
 -1.0468280e-001
 -9.9825294e-002
 -9.5723463e-002
 -9.3288808e-002
 -9.3028840e-002
 -9.4869520e-002
 -9.8122591e-002
 -1.0163737e-001
 -1.0411673e-001
 -1.0450789e-001
 -1.0233776e-001
 -9.7875278e-002
 -9.2063850e-002
 -8.6244772e-002
 -8.1755143e-002
 -7.9516268e-002
 -7.9732987e-002
 -8.1802481e-002
 -8.4480381e-002
 -8.6275873e-002
 -8.5964126e-002
 -8.3042957e-002
 -7.7952784e-002
 -7.1945874e-002
 -6.6624655e-002
 -6.3319706e-002
 -6.2569321e-002
 -6.3933974e-002
 -6.6231391e-002
 -6.8081965e-002
 -6.8510573e-002
 -6.7329711e-002
 -6.5137059e-002
 -6.2945345e-002
 -6.1636293e-002
 -6.1510078e-002
 -6.2149328e-002
 -6.2660069e-002
 -6.2166146e-002
 -6.0306114e-002
 -5.7476161e-002
 -5.4686439e-002
 -5.3091463e-002
 -5.3420541e-002
 -5.5587646e-002
 -5.8673956e-002
 -6.1295069e-002
 -6.2182943e-002
 -6.0718123e-002
 -5.7178495e-002
 -5.2606116e-002
 -4.8368259e-002
 -4.5617838e-002
 -4.4881120e-002
 -4.5920855e-002
 -4.7898452e-002
 -4.9749225e-002
 -5.0618222e-002
 -5.0188005e-002
 -4.8770096e-002
 -4.7124088e-002
 -4.6082722e-002
 -4.6149664e-002
 -4.7257269e-002
 -4.8806214e-002
 -4.9976924e-002
 -5.0163804e-002
 -4.9312156e-002
 -4.7978196e-002
 -4.7067733e-002
 -4.7370680e-002
 -4.9115685e-002
 -5.1769004e-002
 -5.4193349e-002
 -5.5116778e-002
 -5.3716770e-002
 -5.0065063e-002
 -4.5226220e-002
 -4.0936622e-002
 -3.8958837e-002
 -4.0344263e-002
 -4.4897071e-002
 -5.1097078e-002
 -5.6599719e-002
 -5.9193827e-002
 -5.7838222e-002
 -5.3270365e-002
 -4.7814312e-002
 -4.4389591e-002
 -4.5148257e-002
 -5.0399990e-002
 -5.8377851e-002
 -6.5991937e-002
 -7.0224592e-002
 -6.9498435e-002
 -6.4361834e-002
 -5.7173846e-002
 -5.0962255e-002
 -4.8032357e-002
 -4.9017116e-002
 -5.2815734e-002
 -5.7389630e-002
 -6.0933288e-002
 -6.2767072e-002
 -6.3500104e-002
 -6.4451518e-002
 -6.6730769e-002
 -7.0530009e-002
 -7.5011819e-002
 -7.8810943e-002
 -8.0828823e-002
 -8.0861755e-002
 -7.9718487e-002
 -7.8773456e-002
 -7.9211678e-002
 -8.1386620e-002
 -8.4639997e-002
 -8.7660069e-002
 -8.9145573e-002
 -8.8389856e-002
 -8.5496456e-002
 -8.1199791e-002
 -7.6491156e-002
 -7.2285371e-002
 -6.9229874e-002
 -6.7619270e-002
 -6.7361828e-002
 -6.8016414e-002
 -6.8948453e-002
 -6.9582932e-002
 -6.9637948e-002
 -6.9209402e-002
 -6.8660357e-002
 -6.8377442e-002
 -6.8522789e-002
 -6.8907069e-002
 -6.9045772e-002
 -6.8370908e-002
 -6.6498087e-002
 -6.3424020e-002
 -5.9560036e-002
 -5.5582907e-002
 -5.2171813e-002
 -4.9752528e-002
 -4.8358560e-002
 -4.7656478e-002
 -4.7109392e-002
 -4.6204828e-002
 -4.4661919e-002
 -4.2548514e-002
 -4.0269987e-002
 -3.8432311e-002
 -3.7626051e-002
 -3.8210961e-002
 -4.0184950e-002
 -4.3189163e-002
 -4.6644762e-002
 -4.9961443e-002
 -5.2727978e-002
 -5.4807555e-002
 -5.6312037e-002
 -5.7490229e-002
 -5.8597010e-002
 -5.9797863e-002
 -6.1127181e-002
 -6.2492088e-002
 -6.3709833e-002
 -6.4571745e-002
 -6.4920119e-002
 -6.4708477e-002
 -6.4014389e-002
 -6.3000179e-002
 -6.1849223e-002
 -6.0712514e-002
 -5.9679304e-002
 -5.8766169e-002
 -5.7921594e-002
 -5.7055501e-002
 -5.6097980e-002
 -5.5063023e-002
 -5.4067742e-002
 -5.3270026e-002
 -5.2744465e-002
 -5.2378264e-002
 -5.1879214e-002
 -5.0925513e-002
 -4.9389740e-002
 -4.7503145e-002
 -4.5841353e-002
 -4.5109567e-002
 -4.5829221e-002
 -4.8094609e-002
 -5.1525739e-002
 -5.5423932e-002
 -5.9030321e-002
 -6.1763801e-002
 -6.3366275e-002
 -6.3946556e-002
 -6.3940886e-002
 -6.4001395e-002
 -6.4818780e-002
 -6.6902696e-002
 -7.0376055e-002
 -7.4866504e-002
 -7.9570401e-002
 -8.3499045e-002
 -8.5817878e-002
 -8.6128849e-002
 -8.4576106e-002
 -8.1751373e-002
 -7.8465401e-002
 -7.5486728e-002
 -7.3334186e-002
 -7.2176349e-002
 -7.1855785e-002
 -7.2015922e-002
 -7.2269386e-002
 -7.2333290e-002
 -7.2084730e-002
 -7.1541739e-002
 -7.0814259e-002
 -7.0071087e-002
 -6.9535550e-002
 -6.9482348e-002
 -7.0194195e-002
 -7.1863788e-002
 -7.4476580e-002
 -7.7744636e-002
 -8.1152076e-002
 -8.4119631e-002
 -8.6228232e-002
 -8.7396561e-002
 -8.7913696e-002
 -8.8290249e-002
 -8.8982456e-002
 -9.0115414e-002
 -9.1344962e-002
 -9.1943539e-002
 -9.1095342e-002
 -8.8284847e-002
 -8.3608301e-002
 -7.7856386e-002
 -7.2300818e-002
 -6.8238310e-002
 -6.6461235e-002
 -6.6886875e-002
 -6.8542867e-002
 -6.9964237e-002
 -6.9855686e-002
 -6.7713810e-002
 -6.4091742e-002
 -6.0354274e-002
 -5.8034875e-002
 -5.8116952e-002
 -6.0597139e-002
 -6.4531271e-002
 -6.8509502e-002
 -7.1298798e-002
 -7.2335088e-002
 -7.1855845e-002
 -7.0659398e-002
 -6.9650249e-002
 -6.9404645e-002
 -6.9952180e-002
 -7.0850974e-002
 -7.1494785e-002
 -7.1488893e-002
 -7.0906620e-002
 -7.0298901e-002
 -7.0449927e-002
 -7.1996243e-002
 -7.5090872e-002
 -7.9267866e-002
 -8.3571248e-002
 -8.6909730e-002
 -8.8515319e-002
 -8.8320121e-002
 -8.7046024e-002
 -8.5891486e-002
 -8.5914879e-002
 -8.7436316e-002
 -8.9822672e-002
 -9.1808409e-002
 -9.2170220e-002
 -9.0357243e-002
 -8.6731524e-002
 -8.2340278e-002
 -7.8415737e-002
 -7.5894041e-002
 -7.5141894e-002
 -7.5916912e-002
 -7.7507694e-002
 -7.9011190e-002
 -7.9705193e-002
 -7.9400028e-002
 -7.8576821e-002
 -7.8168589e-002
 -7.9041548e-002
 -8.1451579e-002
 -8.4800118e-002
 -8.7837508e-002
 -8.9191138e-002
 -8.7932140e-002
 -8.3934307e-002
 -7.7944251e-002
 -7.1414660e-002
 -6.6167893e-002
 -6.3911061e-002
 -6.5638707e-002
 -7.1081910e-002
 -7.8493044e-002
 -8.5027460e-002
 -8.7730865e-002
 -8.4785471e-002
 -7.6440202e-002
 -6.5123365e-002
 -5.4602551e-002
 -4.8526665e-002
 -4.8997827e-002
 -5.5800039e-002
 -6.6575657e-002
 -7.7791713e-002
 -8.6024919e-002
 -8.9049675e-002
 -8.6392417e-002
 -7.9273246e-002
 -7.0068078e-002
 -6.1540142e-002
 -5.6102646e-002
 -5.5298946e-002
 -5.9564601e-002
 -6.8235325e-002
 -7.9736938e-002
 -9.1924316e-002
 -1.0255590e-001
 -1.0984281e-001
 -1.1292227e-001
 -1.1206609e-001
 -1.0851488e-001
 -1.0399357e-001
 -1.0010858e-001
 -9.7863828e-002
 -9.7454623e-002
 -9.8364450e-002
 -9.9671981e-002
 -1.0042211e-001
 -9.9930157e-002
 -9.7943633e-002
 -9.4646336e-002
 -9.0536382e-002
 -8.6240910e-002
 -8.2340767e-002
 -7.9262958e-002
 -7.7261674e-002
 -7.6465442e-002
 -7.6935564e-002
 -7.8676078e-002
 -8.1570192e-002
 -8.5282271e-002
 -8.9215546e-002
 -9.2606062e-002
 -9.4754384e-002
 -9.5294158e-002
 -9.4342053e-002
 -9.2412791e-002
 -9.0102454e-002
 -8.7677278e-002
 -8.4779186e-002
 -8.0430865e-002
 -7.3397192e-002
 -6.2785946e-002
 -4.8630092e-002
 -3.2163992e-002
 -1.5614678e-002
 -1.5331394e-003
  8.1043593e-003
  1.2683606e-002
  1.3317230e-002
  1.2625445e-002
  1.3970846e-002
  2.0365297e-002
  3.3385488e-002
  5.2468153e-002
  7.4884772e-002
  9.6506936e-002
  1.1319286e-001
  1.2233968e-001
  1.2399124e-001
  1.2098913e-001
  1.1801993e-001
  1.1989990e-001
  1.2980134e-001
  1.4816423e-001
  1.7272282e-001
  1.9956757e-001
  2.2471267e-001
  2.4546616e-001
  2.6107259e-001
  2.7250070e-001
  2.8164354e-001
  2.9038410e-001
  2.9990949e-001
  3.1044601e-001
  3.2138961e-001
  3.3169213e-001
  3.4031731e-001
  3.4658213e-001
  3.5026526e-001
  3.5148729e-001
  3.5047803e-001
  3.4737160e-001
  3.4211581e-001
  3.3451527e-001
  3.2438476e-001
  3.1176022e-001
  2.9708518e-001
  2.8128350e-001
  2.6566443e-001
  2.5166996e-001
  2.4053044e-001
  2.3292228e-001
  2.2872925e-001
  2.2700522e-001
  2.2620568e-001
  2.2467500e-001
  2.2125528e-001
  2.1578182e-001
  2.0922523e-001
  2.0336237e-001
  2.0006517e-001
  2.0048440e-001
  2.0447475e-001
  2.1051666e-001
  2.1618077e-001
  2.1894747e-001
  2.1704457e-001
  2.0996946e-001
  1.9851711e-001
  1.8435878e-001
  1.6939277e-001
  1.5513906e-001
  1.4237562e-001
  1.3107835e-001
  1.2060314e-001
  1.0998417e-001
  9.8228252e-002
  8.4537731e-002
  6.8453390e-002
  4.9939078e-002
  2.9423387e-002
  7.7858233e-003
 -1.3746631e-002
 -3.3818892e-002
 -5.1267899e-002
 -6.5470139e-002
 -7.6596622e-002
 -8.5648414e-002
 -9.4199604e-002
 -1.0388781e-001
 -1.1582250e-001
 -1.3015378e-001
 -1.4600014e-001
 -1.6178029e-001
 -1.7580905e-001
 -1.8689856e-001
 -1.9471344e-001
 -1.9975513e-001
 -2.0302948e-001
 -2.0559059e-001
 -2.0818279e-001
 -2.1111311e-001
 -2.1434201e-001
 -2.1767266e-001
 -2.2090570e-001
 -2.2389263e-001
 -2.2650637e-001
 -2.2859475e-001
 -2.2997663e-001
 -2.3049798e-001
 -2.3012176e-001
 -2.2900317e-001
 -2.2750697e-001
 -2.2614426e-001
 -2.2543268e-001
 -2.2571207e-001
 -2.2697523e-001
 -2.2879344e-001
 -2.3040882e-001
 -2.3101043e-001
 -2.3011238e-001
 -2.2786154e-001
 -2.2509118e-001
 -2.2303964e-001
 -2.2282860e-001
 -2.2493865e-001
 -2.2893880e-001
 -2.3360442e-001
 -2.3737292e-001
 -2.3894340e-001
 -2.3778348e-001
 -2.3435544e-001
 -2.2997666e-001
 -2.2635473e-001
 -2.2495389e-001
 -2.2641819e-001
 -2.3026242e-001
 -2.3494384e-001
 -2.3828648e-001
 -2.3810975e-001
 -2.3285799e-001
 -2.2203961e-001
 -2.0634028e-001
 -1.8735817e-001
 -1.6701685e-001
 -1.4682843e-001
 -1.2726265e-001
 -1.0747740e-001
 -8.5560285e-002
 -5.9246384e-002
 -2.6879358e-002
  1.1754146e-002
  5.5099965e-002
  1.0025204e-001
  1.4403660e-001
  1.8436196e-001
  2.2126442e-001
  2.5721291e-001
  2.9660774e-001
  3.4478744e-001
  4.0701221e-001
  4.8776591e-001
  5.9043977e-001
  7.1721122e-001
  8.6884017e-001
  1.0442140e+000
  1.2397332e+000
  1.4489013e+000
  1.6625851e+000
  1.8702301e+000
  2.0618848e+000
  2.2304022e+000
  2.3729082e+000
  2.4907633e+000
  2.5877966e+000
  2.6673458e+000
  2.7292431e+000
  2.7680540e+000
  2.7734992e+000
  2.7332037e+000
  2.6369848e+000
  2.4811624e+000
  2.2711862e+000
  2.0214217e+000
  1.7520591e+000
  1.4842922e+000
  1.2355455e+000
  1.0163329e+000
  8.2951132e-001
  6.7172553e-001
  5.3616096e-001
  4.1552715e-001
  3.0439846e-001
  2.0042532e-001
  1.0431664e-001
  1.8814085e-002
 -5.2885760e-002
 -1.0870308e-001
 -1.4874860e-001
 -1.7561625e-001
 -1.9387217e-001
 -2.0894462e-001
 -2.2576715e-001
 -2.4757866e-001
 -2.7523122e-001
 -3.0719771e-001
 -3.4024648e-001
 -3.7053774e-001
 -3.9477776e-001
 -4.1106706e-001
 -4.1918204e-001
 -4.2021501e-001
 -4.1573926e-001
 -4.0688310e-001
 -3.9376056e-001
 -3.7554118e-001
 -3.5111858e-001
 -3.2004419e-001
 -2.8328884e-001
 -2.4349960e-001
 -2.0463596e-001
 -1.7108407e-001
 -1.4650773e-001
 -1.3278908e-001
 -1.2942499e-001
 -1.3364563e-001
 -1.4129461e-001
 -1.4820985e-001
 -1.5159785e-001
 -1.5084099e-001
 -1.4738374e-001
 -1.4374503e-001
 -1.4211967e-001
 -1.4324733e-001
 -1.4610837e-001
 -1.4858491e-001
 -1.4871344e-001
 -1.4583339e-001
 -1.4099513e-001
 -1.3640302e-001
 -1.3420179e-001
 -1.3527109e-001
 -1.3868536e-001
 -1.4213632e-001
 -1.4310168e-001
 -1.4014681e-001
 -1.3367839e-001
 -1.2576299e-001
 -1.1911377e-001
 -1.1576790e-001
 -1.1611458e-001
 -1.1874083e-001
 -1.2115305e-001
 -1.2101058e-001
 -1.1726996e-001
 -1.1069313e-001
 -1.0348782e-001
 -9.8264999e-002
 -9.6814201e-002
 -9.9268224e-002
 -1.0403664e-001
 -1.0852779e-001
 -1.1031263e-001
 -1.0817928e-001
 -1.0258868e-001
 -9.5347390e-002
 -8.8703885e-002
 -8.4343886e-002
 -8.2767222e-002
 -8.3284248e-002
 -8.4523448e-002
 -8.5100386e-002
 -8.4094654e-002
 -8.1183792e-002
 -7.6520029e-002
 -7.0537698e-002
 -6.3814844e-002
 -5.6991457e-002
 -5.0691692e-002
 -4.5427969e-002
 -4.1509099e-002
 -3.8975860e-002
 -3.7567566e-002
 -3.6732469e-002
 -3.5725609e-002
 -3.3824718e-002
 -3.0609945e-002
 -2.6167161e-002
 -2.1086755e-002
 -1.6245718e-002
 -1.2479915e-002
 -1.0287830e-002
 -9.6690679e-003
 -1.0149353e-002
 -1.0990276e-002
 -1.1505570e-002
 -1.1334269e-002
 -1.0527579e-002
 -9.4112937e-003
 -8.3147931e-003
 -7.3223954e-003
 -6.1841006e-003
 -4.4498100e-003
 -1.7812260e-003
  1.7270275e-003
  5.4390449e-003
  8.4020572e-003
  9.8040935e-003
  9.4008345e-003
  7.6769861e-003
  5.6875018e-003
  4.6906247e-003
  5.7363659e-003
  9.3407554e-003
  1.5325423e-002
  2.2851750e-002
  3.0625993e-002
  3.7217852e-002
  4.1432414e-002
  4.2672189e-002
  4.1195670e-002
  3.8155796e-002
  3.5342104e-002
  3.4657781e-002
  3.7485899e-002
  4.4177073e-002
  5.3876640e-002
  6.4786609e-002
  7.4772044e-002
  8.2074476e-002
  8.5864988e-002
  8.6453144e-002
  8.5105698e-002
  8.3565261e-002
  8.3455197e-002
  8.5783711e-002
  9.0707975e-002
  9.7609673e-002
  1.0541150e-001
  1.1298248e-001
  1.1947403e-001
  1.2448978e-001
  1.2807570e-001
  1.3058417e-001
  1.3249801e-001
  1.3429557e-001
  1.3639864e-001
  1.3918689e-001
  1.4301766e-001
  1.4818907e-001
  1.5483054e-001
  1.6277016e-001
  1.7146988e-001
  1.8010641e-001
  1.8780699e-001
  1.9395893e-001
  1.9845826e-001
  2.0178348e-001
  2.0486340e-001
  2.0879837e-001
  2.1453908e-001
  2.2261652e-001
  2.3298311e-001
  2.4499839e-001
  2.5757630e-001
  2.6948184e-001
  2.7971154e-001
  2.8783448e-001
  2.9415255e-001
  2.9959117e-001
  3.0534356e-001
  3.1241034e-001
  3.2123283e-001
  3.3157511e-001
  3.4268523e-001
  3.5363575e-001
  3.6367806e-001
  3.7247129e-001
  3.8013020e-001
  3.8712153e-001
  3.9408187e-001
  4.0162789e-001
  4.1020653e-001
  4.2001162e-001
  4.3097898e-001
  4.4285565e-001
  4.5531718e-001
  4.6808937e-001
  4.8103073e-001
  4.9414672e-001
  5.0752850e-001
  5.2123275e-001
  5.3514750e-001
  5.4890563e-001
  5.6189447e-001
  5.7337921e-001
  5.8273703e-001
  5.8977143e-001
  5.9500243e-001
  5.9973847e-001
  6.0574878e-001
  6.1454901e-001
  6.2659904e-001
  6.4087056e-001
  6.5511219e-001
  6.6676785e-001
  6.7412106e-001
  6.7708927e-001
  6.7727298e-001
  6.7726172e-001
  6.7956791e-001
  6.8569236e-001
  6.9568149e-001
  7.0825687e-001
  7.2136242e-001
  7.3287565e-001
  7.4124816e-001
  7.4591616e-001
  7.4741028e-001
  7.4717401e-001
  7.4715840e-001
  7.4928956e-001
  7.5491675e-001
  7.6436190e-001
  7.7670653e-001
  7.8993492e-001
  8.0146875e-001
  8.0898175e-001
  8.1123367e-001
  8.0859495e-001
  8.0300399e-001
  7.9730099e-001
  7.9414206e-001
  7.9490065e-001
  7.9900851e-001
  8.0403513e-001
  8.0651117e-001
  8.0319790e-001
  7.9232197e-001
  7.7430118e-001
  7.5166665e-001
  7.2817755e-001
  7.0743753e-001
  6.9154745e-001
  6.8035361e-001
  6.7162511e-001
  6.6208668e-001
  6.4883073e-001
  6.3044959e-001
  6.0738682e-001
  5.8143228e-001
  5.5473024e-001
  5.2886824e-001
  5.0447438e-001
  4.8140009e-001
  4.5923400e-001
  4.3776236e-001
  4.1710719e-001
  3.9753279e-001
  3.7912827e-001
  3.6161265e-001
  3.4437674e-001
  3.2670338e-001
  3.0801930e-001
  2.8806269e-001
  2.6693757e-001
  2.4508654e-001
  2.2321194e-001
  2.0214550e-001
  1.8266015e-001
  1.6525211e-001
  1.4996184e-001
  1.3630663e-001
  1.2336156e-001
  1.0997918e-001
  9.5103523e-002
  7.8102021e-002
  5.9009232e-002
  3.8579164e-002
  1.8104985e-002
 -9.4097713e-004
 -1.7324007e-002
 -3.0383053e-002
 -4.0181859e-002
 -4.7433485e-002
 -5.3232966e-002
 -5.8700704e-002
 -6.4668667e-002
 -7.1516946e-002
 -7.9200825e-002
 -8.7427179e-002
 -9.5875816e-002
 -1.0434340e-001
 -1.1273036e-001
 -1.2088441e-001
 -1.2841450e-001
 -1.3463294e-001
 -1.3873054e-001
 -1.4015296e-001
 -1.3900278e-001
 -1.3623326e-001
 -1.3347735e-001
 -1.3253293e-001
 -1.3470324e-001
 -1.4027087e-001
 -1.4832805e-001
 -1.5703619e-001
 -1.6422128e-001
 -1.6809853e-001
 -1.6788682e-001
 -1.6411156e-001
 -1.5848336e-001
 -1.5336278e-001
 -1.5096073e-001
 -1.5254111e-001
 -1.5792896e-001
 -1.6554233e-001
 -1.7297174e-001
 -1.7790355e-001
 -1.7902315e-001
 -1.7652211e-001
 -1.7198548e-001
 -1.6769693e-001
 -1.6565970e-001
 -1.6677075e-001
 -1.7052583e-001
 -1.7538165e-001
 -1.7957100e-001
 -1.8193530e-001
 -1.8234742e-001
 -1.8154897e-001
 -1.8056867e-001
 -1.8010864e-001
 -1.8025262e-001
 -1.8060492e-001
 -1.8068899e-001
 -1.8030373e-001
 -1.7961768e-001
 -1.7898986e-001
 -1.7868541e-001
 -1.7868881e-001
 -1.7871328e-001
 -1.7836306e-001
 -1.7733176e-001
 -1.7554097e-001
 -1.7318598e-001
 -1.7069569e-001
 -1.6861734e-001
 -1.6743516e-001
 -1.6736372e-001
 -1.6820712e-001
 -1.6938487e-001
 -1.7014875e-001
 -1.6988860e-001
 -1.6835566e-001
 -1.6569388e-001
 -1.6231387e-001
 -1.5873722e-001
 -1.5549836e-001
 -1.5307680e-001
 -1.5178368e-001
 -1.5160309e-001
 -1.5210595e-001
 -1.5256922e-001
 -1.5230207e-001
 -1.5100858e-001
 -1.4896099e-001
 -1.4687126e-001
 -1.4553880e-001
 -1.4547281e-001
 -1.4667062e-001
 -1.4862559e-001
 -1.5053221e-001
 -1.5160217e-001
 -1.5138616e-001
 -1.4998374e-001
 -1.4803402e-001
 -1.4645706e-001
 -1.4604870e-001
 -1.4712974e-001
 -1.4942543e-001
 -1.5221960e-001
 -1.5469020e-001
 -1.5627337e-001
 -1.5691530e-001
 -1.5711193e-001
 -1.5769975e-001
 -1.5946311e-001
 -1.6273441e-001
 -1.6719491e-001
 -1.7198380e-001
 -1.7605042e-001
 -1.7856187e-001
 -1.7918106e-001
 -1.7812985e-001
 -1.7606475e-001
 -1.7385462e-001
 -1.7234756e-001
 -1.7217024e-001
 -1.7356150e-001
 -1.7624445e-001
 -1.7939020e-001
 -1.8176324e-001
 -1.8209416e-001
 -1.7959451e-001
 -1.7439760e-001
 -1.6768273e-001
 -1.6135360e-001
 -1.5734742e-001
 -1.5685036e-001
 -1.5977799e-001
 -1.6478048e-001
 -1.6978644e-001
 -1.7284409e-001
 -1.7288961e-001
 -1.7012168e-001
 -1.6584534e-001
 -1.6188280e-001
 -1.5982902e-001
 -1.6047337e-001
 -1.6360331e-001
 -1.6822352e-001
 -1.7305522e-001
 -1.7708159e-001
 -1.7990247e-001
 -1.8176014e-001
 -1.8326106e-001
 -1.8496204e-001
 -1.8703748e-001
 -1.8918302e-001
 -1.9078482e-001
 -1.9125609e-001
 -1.9036853e-001
 -1.8841564e-001
 -1.8613244e-001
 -1.8441323e-001
 -1.8395567e-001
 -1.8497583e-001
 -1.8709778e-001
 -1.8945848e-001
 -1.9100443e-001
 -1.9089048e-001
 -1.8883579e-001
 -1.8528353e-001
 -1.8127636e-001
 -1.7808162e-001
 -1.7671946e-001
 -1.7759553e-001
 -1.8039117e-001
 -1.8424031e-001
 -1.8809014e-001
 -1.9107163e-001
 -1.9273017e-001
 -1.9306034e-001
 -1.9238626e-001
 -1.9117703e-001
 -1.8987936e-001
 -1.8881574e-001
 -1.8816235e-001
 -1.8799214e-001
 -1.8834014e-001
 -1.8923375e-001
 -1.9064933e-001
 -1.9241060e-001
 -1.9410211e-001
 -1.9508739e-001
 -1.9467494e-001
 -1.9238810e-001
 -1.8822012e-001
 -1.8274092e-001
 -1.7697906e-001
 -1.7210255e-001
 -1.6901987e-001
 -1.6806673e-001
 -1.6891116e-001
 -1.7071061e-001
 -1.7244449e-001
 -1.7327679e-001
 -1.7280489e-001
 -1.7111522e-001
 -1.6865907e-001
 -1.6603388e-001
 -1.6377453e-001
 -1.6222937e-001
 -1.6154280e-001
 -1.6171647e-001
 -1.6269037e-001
 -1.6438286e-001
 -1.6665996e-001
 -1.6925692e-001
 -1.7172336e-001
 -1.7347226e-001
 -1.7396488e-001
 -1.7297323e-001
 -1.7078573e-001
 -1.6822278e-001
 -1.6641685e-001
 -1.6643167e-001
 -1.6887066e-001
 -1.7362807e-001
 -1.7988278e-001
 -1.8635180e-001
 -1.9172459e-001
 -1.9511666e-001
 -1.9635601e-001
 -1.9598057e-001
 -1.9496013e-001
 -1.9428774e-001
 -1.9463397e-001
 -1.9619908e-001
 -1.9877930e-001
 -2.0196133e-001
 -2.0532528e-001
 -2.0856787e-001
 -2.1152145e-001
 -2.1410227e-001
 -2.1624966e-001
 -2.1790786e-001
 -2.1906524e-001
 -2.1982478e-001
 -2.2045190e-001
 -2.2134458e-001
 -2.2290332e-001
 -2.2534035e-001
 -2.2852491e-001
 -2.3196834e-001
 -2.3499205e-001
 -2.3701778e-001
 -2.3783500e-001
 -2.3769500e-001
 -2.3717177e-001
 -2.3686388e-001
 -2.3710276e-001
 -2.3782238e-001
 -2.3864764e-001
 -2.3913787e-001
 -2.3904603e-001
 -2.3845655e-001
 -2.3773666e-001
 -2.3733436e-001
 -2.3752848e-001
 -2.3824981e-001
 -2.3905659e-001
 -2.3928835e-001
 -2.3835379e-001
 -2.3603975e-001
 -2.3268915e-001
 -2.2913021e-001
 -2.2635397e-001
 -2.2507839e-001
 -2.2541749e-001
 -2.2683671e-001
 -2.2843083e-001
 -2.2938678e-001
 -2.2939007e-001
 -2.2876414e-001
 -2.2827665e-001
 -2.2872354e-001
 -2.3051143e-001
 -2.3344505e-001
 -2.3680615e-001
 -2.3966021e-001
 -2.4123052e-001
 -2.4117566e-001
 -2.3967638e-001
 -2.3733061e-001
 -2.3492254e-001
 -2.3315663e-001
 -2.3243794e-001
 -2.3275582e-001
 -2.3370079e-001
 -2.3461271e-001
 -2.3482114e-001
 -2.3390108e-001
 -2.3185042e-001
 -2.2911724e-001
 -2.2646625e-001
 -2.2473887e-001
 -2.2459611e-001
 -2.2632497e-001
 -2.2975640e-001
 -2.3430549e-001
 -2.3911308e-001
 -2.4324655e-001
 -2.4591285e-001
 -2.4664231e-001
 -2.4540788e-001
 -2.4264618e-001
 -2.3915674e-001
 -2.3588418e-001
 -2.3363156e-001
 -2.3279222e-001
 -2.3320053e-001
 -2.3417347e-001
 -2.3474855e-001
 -2.3404238e-001
 -2.3159734e-001
 -2.2758122e-001
 -2.2276061e-001
 -2.1825575e-001
 -2.1516615e-001
 -2.1420291e-001
 -2.1546461e-001
 -2.1844173e-001
 -2.2224303e-001
 -2.2594054e-001
 -2.2887984e-001
 -2.3083083e-001
 -2.3194472e-001
 -2.3258118e-001
 -2.3311979e-001
 -2.3384736e-001
 -2.3493822e-001
 -2.3647553e-001
 -2.3844944e-001
 -2.4071813e-001
 -2.4298135e-001
 -2.4483361e-001
 -2.4591386e-001
 -2.4608540e-001
 -2.4553264e-001
 -2.4469876e-001
 -2.4409081e-001
 -2.4406588e-001
 -2.4471660e-001
 -2.4590002e-001
 -2.4736312e-001
 -2.4887252e-001
 -2.5027162e-001
 -2.5144867e-001
 -2.5226593e-001
 -2.5253094e-001
 -2.5206022e-001
 -2.5080737e-001
 -2.4896470e-001
 -2.4695118e-001
 -2.4527108e-001
 -2.4431124e-001
 -2.4418296e-001
 -2.4468848e-001
 -2.4542568e-001
 -2.4597816e-001
 -2.4610207e-001
 -2.4582726e-001
 -2.4543302e-001
 -2.4531983e-001
 -2.4584598e-001
 -2.4720094e-001
 -2.4934616e-001
 -2.5201141e-001
 -2.5473550e-001
 -2.5696911e-001
 -2.5825411e-001
 -2.5843183e-001
 -2.5776642e-001
 -2.5687860e-001
 -2.5648702e-001
 -2.5707591e-001
 -2.5865978e-001
 -2.6076564e-001
 -2.6264182e-001
 -2.6359464e-001
 -2.6329715e-001
 -2.6192584e-001
 -2.6005797e-001
 -2.5838144e-001
 -2.5737388e-001
 -2.5713146e-001
 -2.5744032e-001
 -2.5802993e-001
 -2.5882741e-001
 -2.6003282e-001
 -2.6195902e-001
 -2.6474201e-001
 -2.6811825e-001
 -2.7142764e-001
 -2.7386089e-001
 -2.7482125e-001
 -2.7420806e-001
 -2.7248269e-001
 -2.7049664e-001
 -2.6916868e-001
 -2.6914706e-001
 -2.7058120e-001
 -2.7307329e-001
 -2.7580900e-001
 -2.7780443e-001
 -2.7817679e-001
 -2.7635887e-001
 -2.7221915e-001
 -2.6609273e-001
 -2.5874439e-001
 -2.5126879e-001
 -2.4491219e-001
 -2.4080847e-001
 -2.3966922e-001
 -2.4152657e-001
 -2.4565062e-001
 -2.5071886e-001
 -2.5521136e-001
 -2.5789968e-001
 -2.5825353e-001
 -2.5662258e-001
 -2.5412990e-001
 -2.5229795e-001
 -2.5250628e-001
 -2.5544757e-001
 -2.6078186e-001
 -2.6715376e-001
 -2.7262020e-001
 -2.7536394e-001
 -2.7441455e-001
 -2.7005383e-001
 -2.6370379e-001
 -2.5733682e-001
 -2.5267793e-001
 -2.5055691e-001
 -2.5067558e-001
 -2.5185161e-001
 -2.5259711e-001
 -2.5177229e-001
 -2.4905065e-001
 -2.4502821e-001
 -2.4096314e-001
 -2.3827999e-001
 -2.3804924e-001
 -2.4063065e-001
 -2.4557708e-001
 -2.5179580e-001
 -2.5789699e-001
 -2.6262549e-001
 -2.6525164e-001
 -2.6579262e-001
 -2.6497240e-001
 -2.6392152e-001
 -2.6373187e-001
 -2.6504977e-001
 -2.6786931e-001
 -2.7159165e-001
 -2.7529638e-001
 -2.7808783e-001
 -2.7936959e-001
 -2.7896343e-001
 -2.7708129e-001
 -2.7422006e-001
 -2.7104830e-001
 -2.6830946e-001
 -2.6672213e-001
 -2.6684459e-001
 -2.6889789e-001
 -2.7259655e-001
 -2.7708889e-001
 -2.8111023e-001
 -2.8336949e-001
 -2.8304739e-001
 -2.8016972e-001
 -2.7562988e-001
 -2.7079707e-001
 -2.6687853e-001
 -2.6435609e-001
 -2.6278676e-001
 -2.6105720e-001
 -2.5793803e-001
 -2.5263646e-001
 -2.4507313e-001
 -2.3578260e-001
 -2.2554963e-001
 -2.1502058e-001
 -2.0450640e-001
 -1.9404856e-001
 -1.8365072e-001
 -1.7348901e-001
 -1.6394720e-001
 -1.5544524e-001
 -1.4816371e-001
 -1.4183632e-001
 -1.3575228e-001
 -1.2899601e-001
 -1.2081675e-001
 -1.1094359e-001
 -9.9687260e-002
 -8.7780751e-002
 -7.6039285e-002
 -6.4998516e-002
 -5.4688497e-002
 -4.4634020e-002
 -3.4076324e-002
 -2.2320855e-002
 -9.0564851e-003
  5.5093315e-003
  2.0776709e-002
  3.6079526e-002
  5.1027318e-002
  6.5658726e-002
  8.0311596e-002
  9.5286926e-002
  1.1050914e-001
  1.2538914e-001
  1.3898092e-001
  1.5035489e-001
  1.5898545e-001
  1.6494200e-001
  1.6878845e-001
  1.7126490e-001
  1.7294074e-001
  1.7402415e-001
  1.7440009e-001
  1.7382251e-001
  1.7209953e-001
  1.6914042e-001
  1.6485786e-001
  1.5904340e-001
  1.5136586e-001
  1.4155929e-001
  1.2973079e-001
  1.1661664e-001
  1.0360328e-001
  9.2418451e-002
  8.4554303e-002
  8.0643437e-002
  8.0083757e-002
  8.1135186e-002
  8.1505597e-002
  7.9205114e-002
  7.3306778e-002
  6.4286439e-002
  5.3807646e-002
  4.4064536e-002
  3.6968472e-002
  3.3487627e-002
  3.3343989e-002
  3.5122085e-002
  3.6717736e-002
  3.5973068e-002
  3.1301449e-002
  2.2109941e-002
  8.8903693e-003
 -7.0376175e-003
 -2.4029056e-002
 -4.0679491e-002
 -5.6255119e-002
 -7.0836875e-002
 -8.5132770e-002
 -1.0004714e-001
 -1.1620644e-001
 -1.3366572e-001
 -1.5193074e-001
 -1.7026597e-001
 -1.8810879e-001
 -2.0535607e-001
 -2.2235863e-001
 -2.3961327e-001
 -2.5730371e-001
 -2.7493614e-001
 -2.9129627e-001
 -3.0482045e-001
 -3.1426963e-001
 -3.1941320e-001
 -3.2137496e-001
 -3.2241872e-001
 -3.2520630e-001
 -3.3181175e-001
 -3.4289114e-001
 -3.5734180e-001
 -3.7259142e-001
 -3.8542990e-001
 -3.9310908e-001
 -3.9433300e-001
 -3.8977628e-001
 -3.8191381e-001
 -3.7419094e-001
 -3.6982015e-001
 -3.7064670e-001
 -3.7651026e-001
 -3.8534307e-001
 -3.9396392e-001
 -3.9925890e-001
 -3.9929262e-001
 -3.9393152e-001
 -3.8477542e-001
 -3.7448487e-001
 -3.6582080e-001
 -3.6078058e-001
 -3.6011597e-001
 -3.6332584e-001
 -3.6902780e-001
 -3.7550237e-001
 -3.8119696e-001
 -3.8504908e-001
 -3.8659267e-001
 -3.8590166e-001
 -3.8346495e-001
 -3.8005836e-001
 -3.7660910e-001
 -3.7400678e-001
 -3.7285516e-001
 -3.7325309e-001
 -3.7474351e-001
 -3.7650722e-001
 -3.7773133e-001
 -3.7796184e-001
 -3.7724576e-001
 -3.7598297e-001
 -3.7456508e-001
 -3.7299327e-001
 -3.7068830e-001
 -3.6662525e-001
 -3.5976462e-001
 -3.4957470e-001
 -3.3634382e-001
 -3.2104840e-001
 -3.0477010e-001
 -2.8793003e-001
 -2.6976140e-001
 -2.4836742e-001
 -2.2143268e-001
 -1.8731563e-001
 -1.4602186e-001
 -9.9563307e-002
 -5.1458830e-002
 -5.5137091e-003
  3.5654725e-002
  7.1771783e-002
  1.0533782e-001
  1.4127916e-001
  1.8606764e-001
  2.4666289e-001
  3.2951374e-001
  4.3965257e-001
  5.7981091e-001
  7.4956483e-001
  9.4471940e-001
  1.1572904e+000
  1.3763922e+000
  1.5900736e+000
  1.7877556e+000
  1.9625722e+000
  2.1127528e+000
  2.2413352e+000
  2.3540065e+000
  2.4555987e+000
  2.5464587e+000
